M[M_sun], R[km], Lambda[1], P_c[MeV/fm^3]
0.2416277750616976 15.618515526848569 2160338.09801669 3.5677787854173952
0.2522397060962978 15.314111647863802 1768128.8981443546 3.759394121007386
0.26314800882831796 15.04587159956366 1454190.5670250528 3.9583332485830685
0.27435455726983105 14.8086637498757 1201507.4761802966 4.1649321364577565
0.28585795898596433 14.598425271672223 996823.7834385966 4.379483864064412
0.29765808534908533 14.41165947173169 830404.5455339897 4.602141781531361
0.3097567630751049 14.2454055102308 694241.6350224168 4.8333174018751315
0.32215404792697877 14.097176664557754 582464.2053535221 5.073307953121911
0.3348504368844442 13.9649184938705 490279.7324281572 5.32242345326099
0.3478480204316416 13.846669990145191 413918.69542718556 5.580914103955661
0.36114219652498725 13.741024739747715 350448.51181819534 5.849187234638767
0.37474102790941943 13.646551201112583 297542.7251080917 6.127604639731014
0.3886408974492922 13.562126864727206 253294.08934869975 6.416532908928522
0.4028422099879123 13.486709070039053 213351.21876266078 6.716354036509676
0.4173461685750125 13.41939369184187 184855.65671601347 7.0274660292862325
0.43215312739586076 13.359365593798215 158460.68134605396 7.3502835450368975
0.4472621499274023 13.305935446611986 136115.3699031455 7.685238563061836
0.4626740104863608 13.258491577405174 117167.31350511638 8.032781088637444
0.4783888747350018 13.216444222555928 101054.17832608071 8.393379893319638
0.49440522411600957 13.179331749842135 87320.84956281168 8.767523293242514
0.5107229101707565 13.146679215942475 75579.06657034089 9.155719967787723
0.5273407527879769 13.118092551288099 65535.731515092855 9.55849982126245
0.5442586426227076 13.093214906991758 56915.07902025629 9.976414890517251
0.5614742817070867 13.071682528982091 49510.52600534232 10.410040301767454
0.5789860209693819 13.053219871268707 43136.975168390796 10.859975280245441
0.5967913004510687 13.037566432249633 37635.03811168066 11.326844216717797
0.6148902013089256 13.024438999238008 32885.89620828771 11.811297795342467
0.6332775317896824 13.013655352872819 28769.6638022515 12.314014187824858
0.6519542412089436 13.004929870397206 25208.92217217995 12.83567574380271
0.6709142243155416 12.99812020290561 22113.080619414723 13.376972928234506
0.6901549825758011 12.993039593390861 19424.567405299942 13.938738845984854
0.7096714585620598 12.989517473625174 17082.053407076204 14.521775989499917
0.729460737538156 12.987408931211979 15041.506994346002 15.126921647483144
0.7495166243037014 12.986542280091603 13258.912815086454 15.755049640477445
0.7698367575211144 12.986807324010668 11701.747296531046 16.407072174501913
0.7904137376700745 12.988059382091238 10337.6283594085 17.083941823108027
0.8112417847839317 12.990206568554049 9143.491235129706 17.78665364912176
0.8323147377455712 12.993111797552201 8094.730571831797 18.516247478292435
0.8536276905070833 12.9966802962641 7174.6538824312765 19.273810338082885
0.8751704877427301 13.000819848338132 6364.710571280509 20.06047907591376
0.8969373397101418 13.005423766475989 5652.424046004647 20.87739843792198
0.9189202848678643 13.010407035768564 5024.176752986176 21.725851609735106
0.9411110321094852 13.015702149173302 4470.4072489629825 22.607164042956096
0.9634977772720734 13.021203772941286 3981.5862106411278 23.522705126135083
0.9860743352660027 13.026850087833315 3549.1924498143567 24.47391064822554
1.0088306547532881 13.032575762271973 3166.86996165521 25.462286870190603
1.031753989046856 13.038283871118516 2827.9896603981842 26.489414913144586
1.0548323435077394 13.04393753590511 2527.6579082283706 27.556941336994374
1.0780578669962086 13.049465078845579 2261.426802401672 28.66651925511777
1.1014162006092296 13.054780350791509 2024.85174691566 29.820050859208948
1.1248941684843408 13.059864973726068 1814.5755871637875 31.01946333510827
1.1484810333746778 13.064618494649183 1627.3935344421366 32.266786145660106
1.1721623199781557 13.069020070634268 1460.8096821068484 33.56415793593019
1.195923724032835 13.072999509038537 1312.5404887944337 34.91383398702877
1.2197500515717363 13.076510055827196 1180.1130767057607 36.3181035690503
1.2436253174666734 13.079500665795885 1062.0432880751594 37.77919488196706
1.267536657998851 13.081913054704712 956.4488843621914 39.30006304485843
1.2914649369006015 13.083711783996433 862.1252241962167 40.88351050313633
1.315395732909345 13.084844957957534 777.7543838900887 42.53196151725078
1.3393112055497305 13.08527001012844 702.1580447943231 44.248866846880354
1.3631938241499908 13.084947750055026 634.4672370449734 46.03744660336706
1.3870256983034843 13.083827737891506 573.749536025051 47.900750443784155
1.410787505285244 13.08187119734634 519.225615884709 49.842868180192276
1.4344622833969218 13.079039084372356 470.3279727934559 51.86709437710404
1.4580280169875355 13.07529708981861 426.3156347706603 53.97780392722531
1.4814684089623968 13.0705973293042 386.7602604738421 56.17930658144669
1.5047603663836382 13.06490210553869 351.1656564738765 58.47556928190797
1.5278839107794397 13.058185796953005 319.1071219940738 60.87189280579262
1.5508209737394671 13.050407545274673 290.2127184787839 63.373262064079455
1.5735471389393096 13.041532404674507 264.1508718921245 65.98498325016834
1.5960429145080632 13.031524852980498 240.61592746912874 68.71270982269303
1.6182809988280695 13.020344163482953 219.35170098809883 71.56247069670661
1.6402553822931687 13.007992493283233 200.14591986515072 74.54070084627885
1.6619293770694834 12.9944034303107 182.77117413546412 77.65427454438519
1.6832812881642125 12.979559332991881 167.04994003252403 80.91054149145826
1.7042952668620084 12.963425881607934 152.8087151411882 84.31736611245998
1.7249445634894331 12.945982249063343 139.892797217945 87.8829256713957
1.745205081889437 12.927195955411786 128.18322283493333 91.61574556916818
1.76505831331763 12.907041904120886 117.5623613703571 95.52592919012999
1.7844775795220502 12.885494768376347 107.90554806567116 99.62270832394968
1.8034454943684963 12.862527127254841 99.14141593543852 103.91749525317098
1.8219291652306724 12.838117535315048 91.1622831304005 108.42173289610207
1.8399185012608608 12.812239642063112 83.90798693293097 113.14756928142579
1.8573809068230946 12.784875279812441 77.30426799590641 118.10814351454665
1.8742981765622788 12.756007180226884 71.27774063195571 123.31781944593394
1.8906470368763555 12.725607100029446 65.78445147802016 128.79156794861177
1.9064052451516345 12.693662218445317 60.780590305243415 134.54597944122239
1.9215506849382253 12.660153381851845 56.207652950858034 140.59885609878842
1.9360547242545594 12.625042761498959 52.028620099598804 146.9686365771415
1.9485859208886371 12.589289206215142 48.469566571770464 153.88313827935954
1.9572753069188507 12.551528580478356 45.6626799828875 161.63355070479966
1.962344278988003 12.510197523184678 43.431813248201664 170.27441658636155
1.9640743353491366 12.464484359377062 41.62505509707109 179.86215376978583
