M[M_sun], R[km], Lambda[1], P_c[MeV/fm^3]
0.2416277750616976 15.618515526848569 2160338.09801669 3.5677787854173952
0.25224233669974355 15.314019217201901 1767972.2420748593 3.7594442958336938
0.26315423563694545 15.045702273880192 1454015.1037913472 3.958436948149505
0.27436353178052825 14.808470186809418 1201293.5216552138 4.1650941361325025
0.28586854878852963 14.598295719173574 977347.0322686948 4.379706906027187
0.29767285485726064 14.411452147511838 830241.7693678977 4.602431906211634
0.3097756370637152 14.24515352064918 694106.4428911384 4.833679553747125
0.3221763748990296 14.096936219415888 582301.2061236919 5.073747303455878
0.3348763150895972 13.964602553077654 490047.86498861323 5.3229454120936674
0.34787657829842117 13.846397219964176 413746.53298339667 5.581519558017751
0.36117775676185165 13.740751649855905 350311.1206781065 5.849886174431723
0.3747799351559609 13.646292359521363 297414.3533760243 6.128403231895985
0.3886853131523858 13.561872410025169 253161.29407189318 6.4174376137763085
0.40289006274363504 13.48647710636943 216012.68996000348 6.7173716242353265
0.4173982341602918 13.419171320316423 184747.1417059412 7.028603597223602
0.4322105876707335 13.35914182769571 158367.46555727 7.351548536027111
0.4473250474789308 13.305735956296916 136030.3496997708 7.686638785015716
0.462742383347041 13.258308034464944 117093.41405247935 8.034324735378815
0.47846204262391223 13.216278968358194 100989.64326190499 8.39507556680284
0.49448318213744163 13.17916582089659 87254.88873008813 8.769380027245113
0.5108069444063204 13.146530729477375 75523.31235625167 9.157747253186773
0.5274289447303779 13.11796678830755 65482.07669010475 9.56070763301107
0.5443553751080304 13.09305886469012 56869.28256550007 9.978813716447036
0.5615752077155751 13.071563819507292 49467.774471606404 10.41264117335124
0.5790944276689654 13.053115626996913 43099.760747946835 10.862789805465733
0.5969069369069514 13.037486678117547 37604.034626549284 11.3298846151958
0.6150121133522007 13.024372383354063 32855.234102732415 11.814576935895438
0.6334076544901788 13.013566229781992 28745.054507697634 12.317545628630976
0.6520901496415429 13.004862106847678 25184.5715428693 12.839498350919923
0.6710561565388476 12.998088801390695 22093.239437938442 13.381080527271607
0.6903033091488572 12.993023221310764 19405.3632823675 13.943145762844026
0.709827888992089 12.989506651771906 17066.082191405705 14.526499073623844
0.7296233026268951 12.987399894504515 15025.38705018762 15.131978687704592
0.74968811109855 12.986534284249837 13244.957843454136 15.760459425615277
0.7700148286371915 12.98681650934498 11689.052998069437 16.412854558285943
0.7905998816072494 12.988073025966322 10326.417581319663 17.090117793760147
0.8114349301669956 12.990230096914306 9133.09229828228 17.793245403947765
0.8325157803217621 12.993132545872935 8085.456705909534 18.5232785036669
0.8538365017205993 12.996722619562439 7166.231144633704 19.28130549524282
0.8753870187783097 13.000856221215438 6357.116692051662 20.06846469300977
0.8971619363338107 13.005475757067346 5645.662400408992 20.885947143211556
0.9191518456032746 13.01046191884789 5018.0212971123 21.734959109894973
0.9413504207625937 13.015759232397441 4464.736853629885 22.61685373221568
0.9637455084309842 13.021268095992996 3976.5445262402677 23.533010387430384
0.9863298141549551 13.026921409186 3544.5921446294838 24.48486691032725
1.009093853031334 13.032637315254089 3162.4405096353685 25.47393174960095
1.032018977238932 13.038368710670035 2824.070232900524 26.50178775112305
1.0551115938681535 13.04400875674343 2524.434515188332 27.57001072357579
1.078344199526078 13.049531838534108 2258.348749154674 28.6804010588099
1.1017097175360013 13.054852080703302 2022.0447979560145 29.834792926859595
1.1251963301307073 13.0599195491314 1811.8706792767662 31.03511658132703
1.148790132724999 13.064677605248432 1625.105080265462 32.28340477343221
1.172478598846069 13.069070453363768 1458.8964823453728 33.58179967459867
1.1949775002930914 13.072125057482662 1317.406486368916 34.96129633306053
1.2119170775578965 13.068324874790228 1215.9250166298955 36.53677755993145
1.2241955912628557 13.056090272793021 1140.203726264271 38.32014100999443
1.2329384679492075 13.035744736344336 1080.5260256532836 40.31120601701921
1.238980141012082 13.007919721039812 1031.431413083025 42.50947651833972
1.2429136745902827 12.973177611750478 989.3015302774756 44.91468652146864
1.2452198080230779 12.932070173419635 951.50426539492 47.527134084439886
1.2462518986690467 12.8849848474987 916.5716746711321 50.347805771841905
1.2463298481058387 12.832406405714744 883.4445840496138 53.37750659048147
