M[M_sun], R[km], Lambda[1], P_c[MeV/fm^3]
0.2416277750616976 15.618515526848569 2160338.09801669 3.5677787854173952
0.25224162695410873 15.314053512636546 1767985.5239334742 3.759431686221467
0.2631522117986125 15.0457513635818 1454002.6420461803 3.9584108868647867
0.27436205091695287 14.808496265867499 1201336.961813162 4.165053422858828
0.2858666555111759 14.598269665050507 996712.4088503335 4.379650851414812
0.2976690135125132 14.411503691770289 830282.7955183084 4.602358991971082
0.3097718539228807 14.245189028982304 694147.4776497969 4.833588537005061
0.32217013773442255 14.097018885917723 582334.3250124143 5.0736368843192325
0.33486975918035494 13.964684014400335 490113.6276421751 5.322814230640084
0.34786907984446475 13.846466610105887 413796.22840550623 5.5813673911798345
0.36116876715678325 13.740823125964749 350329.3269707347 5.849710511020485
0.3747709127384382 13.646347426903382 297442.2932656231 6.128202521767739
0.38867417760899603 13.561927368177201 253191.5751638146 6.4172102329541705
0.4028777854844645 13.486529427421038 216044.82018135398 6.717115870832411
0.4173837383884758 13.419249740791763 184767.70882970036 7.028317687104687
0.432197139923607 13.359183125091022 158391.62931163577 7.351230598190244
0.44730822286668204 13.30579762788044 136058.79455852704 7.686286856673598
0.46272453932089075 13.258365533521468 117105.60563178276 8.033936756718031
0.4784441157924151 13.216305842143571 99916.29762714478 8.394649375397622
0.49446413609462175 13.179202011611372 87272.62658051465 8.768913352100082
0.5107857221692487 13.146563700807876 75535.13367967762 9.157237708381532
0.5274090233407481 13.117973052782045 65498.89991192891 9.560152710917146
0.5443301610210386 13.093121219095615 56881.162160943095 9.978210780485824
0.561548503702163 13.071620179783707 49478.476278385184 10.411987450258842
0.57906619866814 13.053161952505608 43109.75818895059 10.86208237702833
0.5968781286669481 13.037490362516941 37611.90674796784 11.329120409416614
0.6149811322806922 13.024378415088252 32862.70015421283 11.813752717550955
0.6333757954680396 13.013592758174434 28751.481075069412 12.316657989171492
0.652055855934194 13.004891554238274 25191.004257856268 12.838538748066888
0.6710204412609668 12.99809375824721 22098.605371757527 13.380048056220792
0.6902661071829628 12.993015994887697 19408.890698097624 13.94203805019976
0.7097878441110578 12.989505963674373 17069.938104701123 14.525311883296737
0.7295808377668939 12.987398483533172 15029.33578419879 15.130707547407225
0.7496443865454854 12.9865405822539 13248.402649048952 15.759099611624604
0.7699699560285167 12.986802664778681 11692.096627617668 16.411401079116978
0.790552797794232 12.988075685186857 10260.398370804152 17.088565372668725
0.8113863066984882 12.990213707478238 9135.5475627162 17.791588460172935
0.8324662148897789 12.993136335253098 8087.6932724643875 18.521511132317038
0.8537841326254048 12.996705575481254 7168.2095908544825 19.279421445720875
0.8753325758884536 13.000850514713127 6359.375877768835 20.06645734586463
0.8971053265497323 13.005457157840215 5647.24812783188 20.883804283346578
0.9190943676969342 13.010456111146489 5019.729837355289 21.732669726666845
0.9412903314710274 13.015751734298236 4466.155863899363 22.614417988305114
0.9636832183389071 13.021249268346795 3977.960844567182 23.530419889423747
0.9862654076254516 13.026900204149458 3545.7831132694014 24.48211275036747
1.0090279029897917 13.032619591303177 3163.50933860085 25.47100446970181
1.0319509568838954 13.038356197123383 2825.048786843107 26.498677920393792
1.0550407610069814 13.043990782875184 2512.2374833587155 27.56672531728399
1.078271950612796 13.049510386113633 2259.1187162222664 28.67691140505557
1.1016358778628126 13.05483103444535 2022.7345182170764 29.83108699508147
1.1251208337470002 13.059903871463884 1812.5442016544578 31.03118156950949
1.1487124939904647 13.064665058799394 1625.6690357560474 32.279227052619746
1.1723992071818723 13.06905623702613 1459.3474894473873 33.57736472904139
1.1961646367403862 13.073039111768892 1311.126186840647 34.92785271170131
1.2199968927122387 13.076541093970233 1178.8678535485215 36.332905877888194
1.24387838537079 13.079526272126971 1060.8688471960875 37.79490675388876
1.2677941412938414 13.081934389780933 955.3950518636705 39.31674014909544
1.2917272575491192 13.08372988752475 861.1300947181844 40.90121226579665
1.3156633091381893 13.084856020368608 776.8911820434272 42.550659249550876
1.3395830066340082 13.085272206142974 701.3490311435488 44.268715971889165
1.363468768498484 13.084940979800056 633.711515973563 46.05841966358242
1.3873042027748552 13.08380782470157 573.0740674943446 47.92301948238426
1.411070009374422 13.081840706342158 518.6282816237202 49.866407640092376
1.4347470327631733 13.078999941052947 469.77536525253896 51.8920950810843
1.4583163943077304 13.07524220448898 425.80919117951294 54.00424302874364
1.4817593447732527 13.07053092312568 386.3002470657601 56.20735731717435
1.5050525223028004 13.064824941249348 350.73566824508526 58.50529026572281
1.5281801924219367 13.058091371905938 318.72134875208553 60.90335013722107
1.551118493917881 13.050300784459628 289.83805372553604 63.406568353251906
1.573845715044157 13.041408316093936 263.82556826667104 66.0202593462331
1.5963448293002451 13.031381605868967 240.32589244507793 68.75008548094577
1.6185818897472146 13.02018657472043 219.0763520837796 71.60208530611874
1.6405567479005447 13.007812958946417 199.88941293755695 74.58270422350986
1.6622288031791626 12.994204589802349 182.55179951070238 77.69882780102449
1.683582880812195 12.97933776458056 166.84398680063558 80.9578179819935
1.7045941067821562 12.963185167657654 152.6040987498651 84.36755247130623
1.7252413066215142 12.94572067529734 139.71199227984738 87.93604401161443
1.7455017616535502 12.926908394452086 128.01489393445462 91.67218431171322
1.7653521471745126 12.906730097034119 117.40994479259788 95.58573081563232
1.7847701048802642 12.885158747174868 107.7727669683933 99.68630739230085
1.8037312784664699 12.862163648850204 99.01203928669223 103.9849589581584
1.8222142400049732 12.837727566296627 91.04268188215254 108.49333983537365
1.8401975471131908 12.811820840866417 83.8005158692759 113.22366126190109
1.857654582245027 12.784429109005629 77.20027004671677 118.18907615222074
1.8745664560147828 12.755530320792186 71.18268074057964 123.4037624336189
1.8909088518768913 12.725098840448712 65.70637638472593 128.88301434108092
1.9066598485794437 12.693122501842485 60.701304201910766 134.64334255535525
1.9217977712283383 12.659582797030412 56.13438383108512 140.70258417666213
1.9363020143111493 12.624461512223665 51.96323818447703 147.07883093772548
1.9499920477507828 12.587961687055175 48.181203063943094 153.82249256989823
1.9590697832640482 12.551975066716613 45.400982690587654 161.59009534478793
1.962294099164494 12.51292423678675 43.53093984025591 170.69363306139132
