M[M_sun], R[km], Lambda[1], P_c[MeV/fm^3]
0.2416277750616976 15.618515526848569 2160338.09801669 3.5677787854173952
0.2522425918575152 15.314043799776382 1768092.8279298753 3.7594472540250448
0.2631546461794288 15.045698865926957 1454044.465755514 3.9584430620956055
0.274364430332849 14.808469672184323 1201250.3805398608 4.165103687444982
0.2858707116329637 14.598186798695933 996730.2998019992 4.379720056445904
0.29767381412186056 14.411451616880413 830225.2344237345 4.602449011948568
0.30977799575923454 14.245108128147733 694051.0614406217 4.833700906403326
0.322178387529439 14.096883533221364 582294.057536648 5.073773208011313
0.33487811749928115 13.964605683297842 490048.78871694184 5.322976187613424
0.3478786660082796 13.846426587009491 413757.26809179 5.581555256854402
0.3611818025102902 13.74070363091341 350310.04582259216 5.849927385748371
0.3747822928616721 13.646276928079397 297405.27192038525 6.128450319390696
0.38868784168279297 13.56183888691976 253161.68891969783 6.417490958471213
0.4028929897288919 13.486461480944227 216011.77963916317 6.717431625433209
0.41740111662426915 13.419158138554968 184733.14610658408 7.028670673525825
0.43221381179682333 13.359140967914394 158361.14461253426 7.351623126417323
0.4473280939389087 13.30573974421666 136029.13654962936 7.686721350014004
0.4627465345168662 13.258279365563247 117082.804924461 8.034415758271331
0.47846637125945324 13.216251705237958 100985.38786842705 8.395175554952726
0.494488503727481 13.179150814253415 87253.33760158723 8.76948951349021
0.5108107789557124 13.146527232591268 75516.54311489026 9.157866797330948
0.5274351116295727 13.117972873364915 65482.834221088175 9.560837823415904
0.5443611669684816 13.093051869400083 56869.22474083649 9.978955171731055
0.5615829329223018 13.071561112360163 49467.608079790974 10.412794544205042
0.579100239016595 13.05312608442781 43096.98992917359 10.862955776591164
0.5969136188264385 13.037464407016431 37602.221025748375 11.330063907378774
0.6150194178360903 13.024353981782989 32853.68588466052 11.814770308221814
0.6334152661860897 13.01355307311894 28742.911780138464 12.317753880856507
0.6520979549972417 13.004859627477735 25183.357337111396 12.839722326005269
0.6710647974363257 12.998072657984876 22091.837390974117 13.381322760143151
0.6903130248541409 12.993001535832308 19404.668444261642 13.943405649097596
0.7098370967390614 12.989505273054657 17065.101402817923 14.52677760719338
0.7296329601152036 12.987399872216397 15024.177043513744 15.132276917946916
0.7496974253178582 12.98655033753797 13243.992771104171 15.760778460885854
0.7700253189352851 12.986817007445064 11688.306632407426 16.41319556976969
0.7906109024135888 12.988077710232465 10326.024099430784 17.090482019577586
0.8114462904686411 12.990229038061281 9132.462281552653 17.79363415355647
0.8325282605792745 12.993140028073073 8084.839713476108 18.523693162581512
0.8538483690269949 12.996714819397106 7165.621163576961 19.281747530097633
0.8753946318916938 13.0008601502707 6357.065403196759 20.06942176106514
0.8944671965356278 13.002810318777431 5720.843681858457 20.92692618583222
0.9095681040031874 12.998383501325486 5246.483199894769 21.891076408312475
0.9216443752998383 12.986938888706453 4873.623023958923 22.961130301734563
0.931437264934736 12.968808605586666 4565.804612858778 24.137613964466507
0.9394742878106445 12.94438833156729 4301.823974639934 25.420147033348066
0.9461580408186261 12.91406857151966 4068.004703399953 26.808810654745624
0.9518328074103691 12.878321191305197 3854.726255032255 28.303964472480125
0.9567407074533273 12.83751331159628 3655.4452878819034 29.90613764949969
0.9611083253366719 12.792007414971504 3466.262174909549 31.616080694663243
0.9650950082894583 12.742074788392902 3284.395750437281 33.43453898915178
0.9688806277924885 12.68817704181119 3107.527576724631 35.36349252334852
0.9725578465108042 12.630598760744318 2934.683284454408 37.40566591967319
0.9762151870362907 12.569655449772666 2766.0113134492485 39.56402777088423
0.9799397897363911 12.505684165315946 2600.9770219219877 41.842646181416114
0.983789670259328 12.43897219150796 2439.8692233326683 44.24544763133907
0.9878066071617821 12.369799019590447 2282.818529476743 46.776708650264354
0.9920568255412578 12.298500807556266 2130.6826757324866 49.44224797636954
0.9965196957579108 12.225294318274738 1983.8426104007578 52.24834929821564
1.0012237877984878 12.150576293646862 1842.8305510174075 55.20296679183378
1.006141323518291 12.074576818108607 1708.5117015847648 58.31701914138412
1.0111909033264446 11.997826451904691 1582.108401647118 61.607082397271625
1.0162296464889453 11.920768029361755 1464.5677951446096 65.09779934822278
1.021585228846605 11.841126724006097 1351.0167976571004 68.74666101643734
1.0275053445723132 11.75952407257023 1241.125167396499 72.54537098614783
1.0340544986629567 11.676791072647614 1135.702389281348 76.50031195717631
1.041249353500188 11.593564015841784 1035.3438250089291 80.6204620850741
1.049087954098213 11.51037895516408 940.7336313607632 84.91448196973174
1.0575454714879442 11.427608878517928 852.4947072521478 89.3914445861028
1.0665943286590858 11.345613486678008 770.6007720431496 94.06087360662453
1.0761878822113453 11.264596333869061 695.291116470248 98.93433105076979
1.0862813354653529 11.184793729212071 626.2313234890087 104.02171430442013
1.096824097948293 11.106297924180577 563.3784959596002 109.33601196537288
1.1077598291125532 11.029184868915765 506.3481310763485 114.88972357213316
1.1190357377011781 10.953595645584942 454.58123442414126 120.69648001506766
1.1306005785927917 10.87943086979887 408.48490969414695 126.77109757727621
1.14239885277469 10.806788144555734 366.79777907426234 133.12898364207473
1.1543691103475782 10.735542154853901 329.4461866882345 139.7871202011122
1.166458987153713 10.665698050874155 296.0008438153625 146.76323076221004
1.1786128892197487 10.597133447989746 266.11864808026047 154.0769600623028
1.1907785613489383 10.529802022556096 239.45872355939002 161.74898909869893
1.2029237200993659 10.463694054698546 215.64578173325293 169.80156868403935
1.2149721083298852 10.398542795107375 194.38708635051205 178.2582748299742
1.2268929639601018 10.334403408837806 175.4474529594019 187.14542501571555
1.2386334148254916 10.271130228418308 158.55156424374823 196.49060391208178
1.2501488791010529 10.208528317043438 143.47068169498942 206.32363433021192
1.2614039660943452 10.146628370313023 130.01045458773467 216.6769992624729
1.2723614971135342 10.08532244463921 117.97716188014559 227.58549138172188
1.2829699130557075 10.024425503313669 107.2320593540659 239.0870021807942
1.2932115423201054 9.96397260064173 97.61971256279358 251.2219444188555
1.3030332233764839 9.903743579626285 89.01499445213254 264.03454810855794
1.312399666623225 9.8436279456816 81.29386338178898 277.5729253405036
1.3213026166003317 9.783720568530613 74.37538008399125 291.8890303921151
1.329696976521754 9.723822358020588 68.1704196675529 307.0391945295504
1.337558716519924 9.663886790458418 62.57920700518839 323.0846150399119
1.3448616193695395 9.603855592745226 57.56780526889662 340.09226337295297
1.351578095120451 9.543641640346058 52.93511165563473 358.13443346563815
1.3576878112537725 9.483199122393552 48.95247988310292 377.29066976829085
1.3631780046056943 9.422472147079318 45.273961663533015 397.6473700303032
1.368021096748885 9.361462094540695 41.87735352719647 419.29900508202013
1.3721979555038786 9.30013746851352 38.94972260819635 442.3489776520982
1.3757036918648269 9.238395918989202 36.228453879140105 466.91023618218406
1.3785232090056467 9.176166343503123 33.76169067010414 493.10687177114585
1.3806329484998148 9.113634617273778 31.47498712871991 521.0754994481989
1.3820372867413873 9.050583385851253 29.500868931344502 550.9653360569092
1.3827228916720655 8.987028700549352 27.659391185293735 582.9409989908281
