M[M_sun], R[km], Lambda[1], P_c[MeV/fm^3]
0.2416277750616976 15.618515526848569 2160338.09801669 3.5677787854173952
0.252238433642309 15.31412962978921 1768240.2130415179 3.759362571978463
0.26314434536698433 15.045932950848497 1454308.8283396752 3.958268045148198
0.27434872353553164 14.808798009451037 1201530.0324928113 4.164830277050071
0.2858503489211802 14.598562335865752 996946.849953053 4.379343625554947
0.2976485486379623 14.411787030433704 830561.05287584 4.601959367155785
0.30974595148719086 14.245506983738457 694355.4333668239 4.833089704052683
0.32214014689527365 14.097332556018852 582570.1840165836 5.073031721790533
0.3348339111632604 13.96508505897921 490383.7983310488 5.322095288357551
0.34782729628673115 13.846867884727962 414025.19269632193 5.580533449116976
0.36112164506561917 13.741209093340155 350538.6903409722 5.8487478104165715
0.3747166400216326 13.646709041388794 297630.61391503643 6.127102570738527
0.38861331275997063 13.5622841709973 253360.5594548372 6.415964135288344
0.4028118917936476 13.48686238307848 216195.27754588675 6.715714303668318
0.41731339758045977 13.41952898304758 184908.67545148634 7.026750877175698
0.43211591548796824 13.35952001639629 158528.3718757137 7.349488296536815
0.44722337031922127 13.306064058915108 136178.48424548437 7.684358311711484
0.46263121412454616 13.258632329297289 117215.57353551088 8.031810685543743
0.47834219767006514 13.216569568271286 101094.95951114161 8.392313933201795
0.4943563293950065 13.179431889952731 87360.86759655022 8.766356099550512
0.5106695780161219 13.14677946754237 75612.82368615651 9.15444557682632
0.5272821899063156 13.11819761899487 65565.08939281349 9.557111965247305
0.5441970031266127 13.093289455056427 56941.18664947406 9.974906979484816
0.5614094732868418 13.07176773314486 49535.44311006143 10.408405404253454
0.5789174428993663 13.05328483243851 43157.966258461616 10.858206102641555
0.5967199352048973 13.037635998196317 37655.64014276471 11.324933081208508
0.6148142714860488 13.024487235953002 32901.299649145345 11.809236616317495
0.6331990500000845 13.013686819282263 28788.05428326212 12.311794446653908
0.6518706939559028 13.004968733647575 25223.459437760623 12.833271987409473
0.6708255939401565 12.998151826720434 22127.753035852213 13.374391100866385
0.6900616584179858 12.993077048906526 19435.38300654164 13.935968916213923
0.7095732411438749 12.989539442390186 17093.140535376762 14.518807371386163
0.7293574652364615 12.987411607878125 15050.164544169169 15.123743165049127
0.749409832472304 12.986545048755852 13268.001093946707 15.75164948965566
0.7697242032475802 12.986801287613218 11709.62964534161 16.403437882364482
0.7902973765612049 12.988053866210748 10344.908360300687 17.080060204173193
0.8111203223511978 12.990191380868326 9149.973960197709 17.782510758515084
0.8321881067079226 12.99310073121119 8101.180195964666 18.511828561522005
0.8534959582898888 12.996657084713217 7179.769515898077 19.269099777168595
0.8750356304869177 13.000793568943772 6369.571982459271 20.05544752630884
0.896796214737129 13.005383960055442 5656.869018190933 20.87202080990273
0.9187744050436002 13.010379915741934 5028.205757612341 21.720127944419318
0.9409599919339995 13.01565893934946 4473.844590809325 22.60107457250344
0.9633426519182564 13.02116075647208 3984.866135124972 23.516228880792834
0.9859149489941251 13.02680844343475 3552.118581828257 24.46702537347508
1.0086655500407755 13.03253230596381 3169.5764065598696 25.454968937661103
1.0315821592429233 13.038243746199035 2830.4159738633075 26.4816392247868
1.0546576128803775 13.043896592014253 2529.8349156655004 27.54869537412696
1.077877417277342 13.049421107776913 2263.374609765697 28.657795897571052
1.101226999287201 13.05475499553319 2026.4951067253767 29.810787029572975
1.1247047091827522 13.059816411149288 1815.9795840714708 31.0096270544709
1.1482872465776157 13.06458912122684 1628.8308870423748 32.25634337030222
1.1719631054584494 13.068981039032746 1462.1291560156228 33.553072407938146
1.1957206851585818 13.072962160095905 1313.7489337427742 34.9020670730651
1.2195429888558882 13.076481963962731 1181.2215055223694 36.30567905554314
1.2434139520646423 13.0794718621098 1063.04807211607 37.76600706783061
1.2673202591775128 13.081895410865206 957.3729243503817 39.28606522417479
1.291245352308647 13.083700263411364 862.9502504810739 40.868652818812826
1.31517196948997 13.084840709856124 778.4712156763871 42.51626804019045
1.3390841487257183 13.085270192890194 702.8379069772866 44.23220718039529
1.3629644460880785 13.08495274132226 635.083885464102 46.01984378426316
1.3867920043792137 13.083843330263226 574.3209921014499 47.88206013661916
1.410551910506202 13.081893216323344 519.7497770541759 49.82311182633767
1.434221869571165 13.07907221277374 470.7985410667873 51.846111891866954
1.4577856839028749 13.0753393486931 426.73896708293535 53.95561447699355
1.4812236983402047 13.070649065646805 387.1529908292002 56.15573222121425
1.50451319093241 13.064970412524751 351.5238385601053 58.450626079191466
1.5276358036015736 13.058264416644235 319.44020028946176 60.845492692616695
1.5505709719160778 13.050500333615007 290.5202389302655 63.34541055034802
1.5722056648224778 13.04114307022921 265.43191563678755 66.0019135534901
1.5912181977964155 13.02849048879511 244.50934811744207 68.88328203959807
1.607809606676284 13.011640986496177 226.7641664256317 71.99851584672244
1.6222465816596778 12.990416424584748 211.3895496759642 75.35690370926548
1.6347626652563911 12.964704569222441 197.87175561457272 78.96839778263048
1.64557734412888 12.934634452296677 185.8555363354448 82.84376454560339
1.6548751049788406 12.90033953217969 175.03496686009848 86.99461011859914
1.6628170690500625 12.861901301211908 165.16991227683909 91.43370540905933
1.6695324357966692 12.819501096690617 156.11644407957985 96.17482806022127
1.6751689560825822 12.773366950213237 147.75160742323715 101.23292855427206
1.679822879837328 12.723639334169667 139.97466290493261 106.62431856243921
1.6835905845633454 12.6705208504976 132.6763621591332 112.36682576183699
1.686554290059257 12.61411237536038 125.8117377604078 118.4794805626922
1.688784046980113 12.554630525548454 119.35076094856834 124.98269030092086
1.690351038639133 12.492230535272238 113.23687643702465 131.89906455764444
1.6913016160579113 12.427089803156464 107.44185011953577 139.25450603052752
1.6916761990307865 12.359361292616168 101.94800233594509 147.07727513232572
