M[M_sun], R[km], Lambda[1], P_c[MeV/fm^3]
0.2416277750616976 15.618515526848569 2160338.09801669 3.5677787854173952
0.2522409855856802 15.314054542919205 1727249.9640824536 3.7594128392124895
0.2631502027322091 15.045832140291258 1454237.4738057605 3.958371934485311
0.27435755891040264 14.808619159026987 1201396.1177579528 4.1649925713035625
0.28586201687134183 14.598375330848768 996817.8841251886 4.379567070598287
0.29766339969777955 14.411591825908422 830389.8982660535 4.602250012885909
0.30976386049850774 14.24531934997554 694210.7131762336 4.833452502311033
0.32216410939546203 14.097028219237513 582392.3868860786 5.073471851479982
0.3348606264523199 13.96479962252701 490180.01408918184 5.322618167426252
0.34785704860615846 13.846612544596653 413849.5378975333 5.581139964458175
0.36115634452557566 13.740940686271829 350391.5239543129 5.849447967983855
0.37475540722003853 13.646456974196852 297482.33395576966 6.12790254596736
0.38865788975969184 13.562037893399753 253247.7672675046 6.41687039762378
0.40285997642817 13.486626009090939 216090.59338936003 6.716733632797166
0.41736591477288226 13.41930706133262 182515.42506203166 7.027890380299399
0.4321740003985539 13.359286715374179 158420.5846319208 7.3507554267592
0.44728508227006564 13.305867580267439 136085.52296216373 7.6857608876217505
0.46269952557945926 13.258419927105217 117141.10212426611 8.033356912081162
0.47841629645035183 13.216374690599347 101028.19562974032 8.394012423896156
0.49443431827074535 13.179274766819931 87299.1841800898 8.768215900238749
0.5107540412759971 13.146629723964267 75556.85833035674 9.156476190954152
0.5273739772036348 13.11803806217805 65514.62369818113 9.559323380872724
0.544294532602121 13.09316536421829 56897.298477464734 9.977309698108572
0.5615119572648729 13.071646741303681 49495.896431356705 10.411010471612052
0.5790264027339084 13.053178818221372 43122.36799650033 10.861025141606943
0.5968345205149264 13.037529283000781 37296.597372181124 11.327978326950708
0.6149363322934553 13.024416866415564 32873.52710593716 11.812520953896986
0.6333274713686613 13.01359782312038 28761.753205254492 12.315331451223916
0.6520058929766482 13.004911742763323 24998.132700505543 12.83710221964173
0.670967706657586 12.99810718627347 22106.710916889075 13.378505089245268
0.6902099663555267 12.993045744776618 19415.729402058103 13.940382646820952
0.709729591608052 12.989513822914962 17075.377427650263 14.52353771402475
0.7295219188520607 12.987402770876503 15035.254439239023 15.128807929863767
0.7495814260205507 12.986540598705764 13253.691095126895 15.757067487779342
0.769902961506089 12.986798752925212 11696.442886221193 16.409228990897585
0.7904829500194852 12.988070397676676 10264.645770121506 17.086245435821812
0.8113138106347738 12.990214735544019 9139.500575181084 17.789112336242486
0.8323896419273835 12.993121610390467 8091.16753001035 18.51886999859698
0.8537058665237518 12.996684332572611 7171.233287352733 19.276605963025318
0.8752512345728738 13.000826819378538 6361.81154100693 20.06345762394737
0.8970215718931476 13.005435972773483 5649.78405722167 20.880590005981265
0.91900627100378 13.010439935616237 5021.901192456522 21.729248573140676
0.9412004014294777 13.015724362186313 4468.362428464598 22.61077813712929
0.9635906555462712 13.021230206834847 3979.8053386571114 23.526548800142884
0.9861701126048283 13.026872957549289 3547.5330130819316 24.477997113983715
1.0089278413385143 13.03259845290484 3165.027150552944 25.466630155368385
1.0318486056141019 13.038331772429574 2826.4292290429685 26.49402991807373
1.054936277477216 13.043962322161786 2526.3701831473645 27.56181588868824
1.0781648273830768 13.049484592779866 2260.2816205710515 28.67169679235518
1.1015273099829646 13.054802292172665 2023.7959584427606 29.82554922426124
1.1250082488038904 13.059885220720416 1813.441422975149 31.025301514103106
1.148596346288569 13.064641082763226 1626.5471977286568 32.272984350831166
1.1722802217175499 13.069037838118026 1460.0647621304304 33.570737694340735
1.1960444530551555 13.073013642346044 1311.8140261440344 34.920818236331385
1.2198726628462788 13.076528404995194 1179.4495630455401 36.32547818755192
1.2437510404067256 13.079511148610328 1061.4408840968222 37.78702262665061
1.2676642587725375 13.081922797283521 955.9479838061872 39.308371647176266
1.291595496937123 13.083721181766194 861.6005204821619 40.89232956588627
1.315528514242856 13.084853634058266 777.3347163081812 42.54127674899376
1.3394467913107475 13.08527550343793 701.7503172611666 44.25875567085647
1.3633312314881918 13.084943273675668 634.0905983499366 46.04789534166846
1.38716426392918 13.083817475431015 573.4194609226447 47.911844798039844
1.4109280778102602 13.081856876413331 518.9328945086787 49.854595419343845
1.4346045297850862 13.079016300504984 470.06009710048227 51.87954955670404
1.4581709626582786 13.075268862507055 426.0636490555472 53.99097566660369
1.4816130821690157 13.070563357480045 386.54045021918733 56.193300544198614
1.504906091177179 13.064866511995943 350.95847333162254 58.49037592703564
1.5280317023543821 13.05814054275897 318.9143324983941 60.88756442846955
1.5509694987620324 13.050353945203458 290.0317445606386 63.389854758329896
1.573696522851317 13.041471860435783 263.98771573982975 66.00255721377889
1.596192374788232 13.03145365553538 240.47072999459326 68.7313296894756
1.6184311035973435 13.020263566026674 219.22667483572957 71.58220589883952
1.6404059195520888 13.007903625800992 200.0244185356163 74.56162600975769
1.6620780026113902 12.994305011373264 182.64684732488163 77.67646992094225
1.683431221342171 12.979449114794015 166.9478780495913 80.93409343068355
1.7044434736638598 12.963305721961783 152.70011756984317 84.34236757827288
1.725092066311743 12.945851355183983 139.7962268663718 87.9093876800123
1.7453528809895662 12.927053451456176 128.10708302476604 91.6438615930785
1.7633821719411458 12.906796567729426 118.24652363219833 95.68779181532595
1.7768226256232447 12.88267965173734 110.64936384216776 100.23674341913767
1.7862062962212424 12.853166316164872 104.64442679173692 105.31076651992217
1.7921186180093776 12.817897250674983 99.74602025157525 110.92737693357434
1.7950436809151102 12.776764032459193 95.66288729304104 117.10680301649931
1.7954439950229493 12.730041888686198 92.176706149274 123.86996689333246
