M[M_sun], R[km], Lambda[1], P_c[MeV/fm^3]
0.2416277750616976 15.618515526848569 2160338.09801669 3.5677787854173952
0.2522404126063555 15.314100804020592 1768054.195820574 3.7594067531168363
0.2631500019479547 15.045824193867272 1454131.5040932256 3.958359356000785
0.27435686857691777 14.808623147747008 1201392.519648321 4.164972921237364
0.2858608014004002 14.598411878508182 977426.7389103643 4.379540016379168
0.29766163261529727 14.411600139917947 830381.3889150312 4.602214821883043
0.3097618715124458 14.245334729583638 694233.1606246176 4.833408574833552
0.32215951745874566 14.097122601047191 582437.8705235264 5.073418560332627
0.33485724832323227 13.964783778408012 490193.2025449801 5.322554856457779
0.3478553582347317 13.846611714597016 413881.1512463049 5.5810665261632995
0.3611507920612938 13.74097449966528 350415.2512341975 5.8493631906434755
0.37475068757784635 13.646488279180382 297509.97445771063 6.127805681674221
0.38865075646377634 13.562084093474896 253263.93737623552 6.416760662856464
0.4028542579839076 13.48664556720307 213324.2997909404 6.716610206453663
0.41735933111898416 13.419330382801574 184825.0733612105 7.027752401604696
0.43216752419323795 13.359321441430282 158440.51565959895 7.350601993037768
0.4472778374913917 13.30590838493007 136102.27850473247 7.6855910519251625
0.46269191897933365 13.258434161082882 115838.83212531933 8.03316968066054
0.478407703201393 13.216399181589292 101035.3982655326 8.393806753507825
0.4944255700187534 13.17928330653435 87307.67578439073 8.767990695271079
0.5107433214233682 13.146650734643478 75563.51142445579 9.156230300362427
0.5273634641881372 13.118050626663376 65521.50353960179 9.559055594907711
0.5442828595631746 13.093182326562562 56903.57864260984 9.977018744823813
0.5615000254227884 13.07166208353761 49499.287543875784 10.41069501313326
0.5790130112456539 13.053212360524208 43125.285253171656 10.860683770146318
0.5968214099807905 13.037533656279125 37627.52596814414 11.327609560546907
0.6149215931575287 13.024411943317164 32877.410849052634 11.812123231860753
0.6333119929647456 13.013625317749138 28764.154918635704 12.314903129267478
0.6519886715125756 13.004920018098892 25202.644160433654 12.836638385131648
0.6709503234251091 12.99811367024962 22109.374632110063 13.37800688909064
0.6901929972379938 12.993042967824447 19420.165162279733 13.939848144665609
0.7097107738184744 12.989526254111835 16951.148678676844 14.522964866454668
0.7295021275945605 12.987392740837599 15037.169356506283 15.128194579547186
0.7495597971872073 12.986540995067195 13255.36379312798 15.756411356118818
0.7698816064511468 12.98680812968981 11698.44364446766 16.408527670157074
0.7904613182116004 12.988067462403421 10334.997552714389 17.085496380689108
0.8112903776619513 12.990211819198468 9140.749884526158 17.788312854784444
0.8323652423427562 12.993110955748964 8092.343302666919 18.518017242560333
0.8536802559117392 12.996689631787923 7172.47908692563 19.275696917433567
0.8752242334545023 13.000829495023956 6362.78095933106 20.062489095938712
0.8969939653247532 13.005437283025312 5650.724778279688 20.879552208421103
0.9189787897306475 13.01042610046607 5022.760874858734 21.728143985373563
0.941171350230357 13.015717559881505 4469.009622413938 22.60960294288675
0.9635602055448228 13.021223095172715 3980.4149300935464 23.525298951075076
0.9861399790691722 13.026863001373991 3548.034194007954 24.476668313657452
1.0088968342213833 13.03259072864068 3165.5603035616696 25.465217842061445
1.0318154112343045 13.03832434293787 2826.881518430514 26.492529246266983
1.054901814030906 13.043957306861934 2526.77263955386 27.560230816883003
1.078129449367777 13.049485338525761 2260.667820675875 28.670013194545064
1.1014898751996314 13.054801556721612 2024.0965499281047 29.82376129818076
1.1249709739739713 13.059872616532784 1813.9790040523126 31.023403085491367
1.1485590075228946 13.064632151856694 1626.8013088678315 32.270968846681825
1.172241658098226 13.069032340911972 1460.3776934163577 33.56859811404688
1.1960046035635243 13.073009890098378 1312.0407140498885 34.918547120541334
1.2198330132788693 13.076521719274314 1179.6881565445103 36.32308012857923
1.2437107543337071 13.079508898980503 1061.66479770478 37.78447721589943
1.2676229742701208 13.081920029160433 956.1091993088507 39.305669866272964
1.2915529151934442 13.083715048992554 861.7944624403516 40.88946178785983
1.315485470595687 13.084852189853448 777.4811604232689 42.5382476214284
1.3394022541089672 13.085276727582976 701.8793834451975 44.25554001536062
1.3632868030345537 13.084944176113888 634.2112620255491 46.044497606341345
1.387119677407836 13.083817324781618 573.5394129529458 47.90823711213758
1.410882812855731 13.08186244151123 519.0245416446212 49.850781923081925
1.4345577831841585 13.079026501054834 470.1478511604099 51.87549933717272
1.4581249293973164 13.075276298273684 426.14297858568915 53.98669242489755
1.481566425258364 13.070574490385198 386.60816463224853 56.188749917341624
1.5048591703147138 13.06487665606341 351.0247703177615 58.48556101787616
1.5279836306002632 13.058156012858126 318.9794847652909 60.882468229995965
1.5509212666192953 13.0503711496477 290.0821587469613 63.38445902803852
1.5736481287411634 13.041492056629565 264.0470435188501 65.99684237450283
1.596144200623461 13.031477264608094 240.5181606780969 68.72527472131712
1.6183822414685618 13.020292228936194 219.2704342963074 71.57578822131882
1.6403568376367739 13.007933189065712 200.06264158333568 74.55482135319303
1.6620285600041644 12.994336499136441 182.68519596183577 77.66925218596738
1.6833828593580735 12.979484859925456 166.98045816895484 80.92643453468821
1.704394661995824 12.963346712171063 152.74330138492817 84.33423728741936
1.7250435668216817 12.945896139279064 139.8310629094574 87.90078241193004
1.745304766101132 12.927101062537396 128.1314563619268 91.63471842581623
1.7651569411782224 12.9069376145632 117.50831079827158 95.54603244247274
1.7845765227250598 12.885382547176496 107.85917790324064 99.64408802774646
1.803540929052062 12.862404480109541 99.0979452871634 103.94017399408175
1.8220264624855833 12.837983681564788 91.12501917530352 108.44580431109183
1.8400119827408832 12.812099796176147 83.87115763184667 113.17317531904742
1.8574728947811157 12.784726026808169 77.26749827850027 118.13538685286403
1.8743886611802998 12.755847559538088 71.24688896863316 123.34670959849558
1.8907347198266349 12.725435860362445 65.75897909420837 128.8223079196757
1.9064905666616563 12.693480672269777 60.75523957314739 134.5787081408752
1.921587701873354 12.660008422128078 56.192661124029485 140.64081835457162
1.9335211940191914 12.62605867983949 52.52155454648582 147.3760483716911
1.9409317243541016 12.589228980060387 49.74111834961669 155.01660025172666
1.9442718244009447 12.547886706989035 47.59084654979141 163.6024026743821
