M[M_sun], R[km], Lambda[1], P_c[MeV/fm^3]
0.2416277750616976 15.618515526848569 2160338.09801669 3.5677787854173952
0.252241994529182 15.314036199113746 1768060.9597744206 3.759439542185325
0.26315437350406284 15.045685867304856 1454159.5742843766 3.9584271233934376
0.2743629486012453 14.808492306760371 1201283.964176714 4.165078787750219
0.28586812927131694 14.598263740052754 996752.6040070953 4.379685774127431
0.2976714678125676 14.411488160750979 830234.9590832882 4.602404418400842
0.30977417960729153 14.24516451354287 694095.491948667 4.8336452414588384
0.32217476973404935 14.096929274683063 582318.9846052579 5.073705676626193
0.3348742179903728 13.964613872630792 490106.60035290784 5.3228959580265744
0.34787378463904417 13.846460504366055 413781.2871845302 5.581462192602593
0.3611738489139777 13.740792309618953 350319.6563775338 5.849819950950419
0.37477632104011654 13.646316276103317 293264.8790784966 6.128327565935717
0.3886811592803153 13.561873501382813 253173.14618993137 6.4173518930877655
0.4028851629192303 13.486494865248183 216024.12024134968 6.717275207195734
0.4173931845418737 13.419190697944982 184751.42216435052 7.028495811201017
0.43220514732669496 13.359176198778876 158379.78133268267 7.3514286756391805
0.44731827021898396 13.305784955397487 136047.0358266517 7.686506110275279
0.462736012846316 13.258310189035594 117101.8247767152 8.034178469717968
0.47845470560899883 13.216285907845224 100994.92315542599 8.394914894966835
0.4944764004073459 13.179178211167395 87262.9250665407 8.769204093046282
0.5107988697258856 13.14653870938829 75523.90398257007 9.157555157108368
0.5274203099796819 13.117981310653406 65488.151697180474 9.560498429649908
0.5443459693912743 13.093078407741624 56872.632894682734 9.978586411783068
0.5615655727018631 13.071575211995802 49472.12228202093 10.412394721831141
0.5790837640760679 13.053128100723555 43102.39535797054 10.862523106886949
0.5968957428512661 13.037498863846421 37605.658546688304 11.329596511376199
0.6150013070280257 13.024359100219268 32858.26998872624 11.814266207112766
0.6333951691013691 13.013565044386933 28747.325992404938 12.317210989815093
0.6520766491023525 13.004872590062666 25186.727030403796 12.839137603698417
0.6710429716695147 12.99807801674852 22095.178352790706 13.380691286182145
0.6902896845472102 12.99301472100386 19408.11008825282 13.942728155224142
0.7098123716973906 12.9895012974869 16941.39835410727 14.526051502400891
0.729608575352266 12.987395710647352 15027.562908862097 15.131499466753322
0.7496720859563002 12.986545182939624 13246.378203936401 15.759946774012787
0.7699979625389936 12.986814771363589 11690.242645547316 16.41230659415614
0.7905823357842651 12.988071178660586 10327.524055446454 17.089532527676695
0.8114165652569427 12.990217605606976 9133.951697204611 17.79262073186177
0.8324968046684662 12.99313018326748 8086.145106685468 18.522612199323294
0.8538155203701285 12.99671269571872 7166.660658782073 19.28059520204594
0.8753665248469817 13.000849034053674 6357.8441057795935 20.067707915295326
0.8971406485716461 13.005465880357548 5646.234447337232 20.885141236879324
0.9191300386079145 13.010466728074892 5018.68996859461 21.734096001269577
0.9413276247794362 13.015748887033793 4439.785765413085 22.61593544380945
0.9637189305679694 13.021270643512851 3976.9390399868475 23.53203375474112
0.9863055694607435 13.026908243330416 3545.0713450690864 24.48382857489119
1.00906876721837 13.032635410596775 3162.850027386875 25.472828145537832
1.0319935000669787 13.038361612424021 2824.3761628557486 26.500615706274157
1.0550846215273142 13.043999521125999 2524.7265743385697 27.568772100712724
1.0783164781017902 13.049526318652926 2258.6308984670195 28.67908543149677
1.1016824503441789 13.054840729447793 2022.254243524781 29.833395759268857
1.125167665321939 13.059914406689018 1812.1247298035962 31.033633046765306
1.1487605421177394 13.064672590248154 1625.2883813166643 32.281829733419876
1.1724484450733383 13.069070479264408 1458.9843039996504 33.58012765630167
1.1962159011181812 13.073040693552613 1310.8033319899562 34.93078552102136
1.2200486940665491 13.076547056953697 1178.5821728165593 36.336002637568726
1.2439304529684858 13.0795321944296 1060.603463345752 37.7981938264266
1.2678464858216947 13.081941011201813 955.1671297088517 39.32022918433842
1.2917820822986479 13.083728364539128 860.9423241977339 40.90491569992292
1.315718403530421 13.084858512121992 776.661515028606 42.55457107910053
1.3396392317698498 13.085271607203245 701.1813933682215 44.272868722377154
1.3635260244850125 13.084941038221583 633.5576744755015 46.06280758904363
1.3873621716551505 13.083808265392733 572.9335433739557 47.92767858728498
1.411128888000913 13.081835372326223 518.4906619383565 49.87133257600169
1.4348067706968646 13.078991288254812 469.6898156789828 51.89732578354732
1.4583771847654199 13.075230512616 425.6941139340188 54.00977471642034
1.4818204568563893 13.070518446299221 386.1974571968181 56.21320907664327
1.5051150016935433 13.064808978480777 350.64241750549024 58.51150870286121
1.528242574858367 13.058071527427943 318.6398494468158 60.90993191648915
1.5511804630413517 13.050277255279225 289.76304549672 63.41353704285231
1.5739083563290985 13.041382313401524 263.75383043615676 66.02764023902418
1.595856967061912 13.031283309739985 240.73193181667125 68.78419926325488
1.6120656795643915 13.016941099404999 224.0089662912402 71.94207811750346
1.6224278486782882 12.995307434767003 211.99454578956883 75.57207416378992
1.6281432373033329 12.96586624720392 202.99523644005797 79.68022320134163
1.630207411334065 12.929067370471062 196.03365990043488 84.27284682527063
