M[M_sun], R[km], Lambda[1], P_c[MeV/fm^3]
0.2416277750616976 15.618515526848569 2160338.09801669 3.5677787854173952
0.25223924606613535 15.31412690017749 1768123.2472838426 3.7593861152221355
0.26314702694178593 15.045878099498264 1454149.6581107688 3.9583167026862536
0.2743531296757915 14.808688274166892 1201498.4257112462 4.164906288700599
0.28585577199259815 14.598473577583103 996840.8620888464 4.379448277110252
0.29765569707921874 14.411706416892837 830473.5551573712 4.602095491826241
0.30975350526281564 14.245424670800416 694269.0309780932 4.833259620745377
0.3221501915250548 14.097208074741406 582504.0407272398 5.073237855729148
0.33484680591340693 13.96487761970632 490282.1546816181 5.322340176693447
0.34784196658355276 13.846686625311001 413942.9313434207 5.580817506944832
0.3611378051375053 13.741047566919898 350483.0603391198 5.849075723555649
0.37473509565504054 13.646585616640499 297568.36208499374 6.12747723101677
0.3886345984881946 13.562161989695028 253301.65482361842 6.416388572196648
0.40283500951953405 13.48673736365852 216149.78146270284 6.716191691960535
0.4173380846868306 13.419444927537317 184861.08648264868 7.027284544955961
0.43214485853070844 13.359391846169567 158479.61106529928 7.350081733868762
0.4472521114361604 13.30597322823286 136133.67174652364 7.685015179787115
0.46266316782061667 13.25852580820446 117174.89292118893 8.032534826452236
0.4783765076151522 13.216480941059288 101064.83104610456 8.393109380342562
0.4943917088949936 13.179372266442872 87331.91494216675 8.767227088737185
0.5107091102344627 13.146704861170038 75583.98801655628 9.155396558132882
0.5273253872549337 13.11812449233666 65541.80098760332 9.558147615650974
0.5442433633245142 13.093215058663013 56921.64452381193 9.976032216364223
0.5614573709159443 13.071714384001902 49515.68525051209 10.409625399805545
0.5789687005900332 13.053235436672749 43142.567587168014 10.859526299284848
0.5967738358226193 13.037573835796778 37641.204534536395 11.32635920804567
0.6148719944828025 13.02444486407897 32890.28188863798 11.81077470673538
0.6332586810717448 13.01363583017957 28774.85032043566 12.31345085714561
0.6519330344985927 13.004928666199037 25212.527005493324 12.835065710924326
0.6708926138563324 12.998125605688225 22116.9159763734 13.37631770165425
0.690131234504784 12.993044751714855 19427.550353411054 13.938035879566462
0.709646533339434 12.989521058275335 17085.031014349923 14.521022596352791
0.729434306014423 12.987412908579591 15043.766465712326 15.12611499094425
0.7494894132444924 12.986539397574356 13261.173835851298 15.754186724451632
0.7698083209806524 12.986806143043992 11703.768127604131 16.40614983311226
0.7903831747871675 12.988066655647524 10339.747931446858 17.082956709604034
0.8112109634678024 12.990202677519441 9145.135267568292 17.78560222398918
0.8322838246400098 12.993096340621548 8096.157025262374 18.515125996503244
0.8535928216975811 12.996679680884984 7175.845201635162 19.27261483541988
0.8751359245730244 13.000805355933593 6365.82198474291 20.05920535429763
0.8969013120960945 13.005408669537127 5653.527290971872 20.876033628561366
0.9188834507563285 13.010409970359651 5025.361720376956 21.72439897306227
0.9410728558532058 13.015687216108255 4471.388416067332 22.605618561330786
0.9634593127005331 13.021194071948278 3982.5898580784906 23.521061476814374
0.9860348079212958 13.026842086315922 3550.0694246821536 24.472163182330014
1.008787806897729 13.032559314812834 3167.5171061201136 25.460429590088115
1.0317102780918053 13.038275920018942 2828.543903156647 26.48744144812285
1.054787937257114 13.04393168901179 2528.087191196495 27.554856891947452
1.0780122079760361 13.049453000534742 2261.9415571075556 28.664305257342427
1.1013696539391358 13.054771833004999 2025.280193108457 29.81769968026599
1.1248467911799134 13.059846838702851 1814.9961139088532 31.016966857548983
1.1484319135027359 13.064607610220728 1627.7613113797463 32.264135727867476
1.1721114777585557 13.069007322858706 1461.1584194488407 33.56134437419225
1.1958713226123943 13.072988169548825 1312.8011376929328 34.910847474605525
1.2196964510850319 13.076499535844253 1180.3540786534859 36.31495014373169
1.2435727975212294 13.079492771747015 1062.3088755046422 37.7758477125622
1.2674817618678795 13.081902413689207 956.6509942400974 39.29651027529392
1.2914084013967386 13.083712284217226 862.3418633023799 40.87973947735812
1.3153399972916415 13.084842163768482 777.9524087262898 42.527978345429716
1.33925383495732 13.085275854066861 702.3262346704761 44.24463842829625
1.3631360691879282 13.084951018951509 634.6043648650141 46.03297878578211
1.3869667061680413 13.083827474634292 573.9048829226133 47.89600658772969
1.4107278711170297 13.081877520862676 519.3729451483299 49.83785372852396
1.4344013444770352 13.079046369495352 470.45147073741987 51.86176869190707
1.4579664897211455 13.075305970446815 426.4303505031955 53.972171873936645
1.481406145842809 13.070608669850555 386.8627945619848 56.17332298768526
1.5046972851431732 13.064920891510953 351.2511703929383 58.46923822653109
1.527821104843784 13.058206710242231 319.19936857995435 60.865191932132724
1.5507568723849694 13.05043173816021 290.28148625931925 63.366167391594544
1.5734836252414752 13.041560116013994 264.22273718955404 65.97746904411751
1.595978658197912 13.031555658123066 240.68345642653907 68.70474845212476
1.6182146013767453 13.020381821434375 219.39807970596922 71.55403247959029
1.640190517314572 13.008031571490395 200.19565609961933 74.53175388048827
1.6618638936160588 12.994445993519445 182.81726205174516 77.6447845230964
1.6832178627334335 12.979605941552363 167.09908186299708 80.90047150136814
1.7042304300615632 12.963479529360662 152.85185043428996 84.30667641305112
1.724880298370674 12.946038315580457 139.92847113474502 87.87161155248334
1.7451428150645418 12.927256960066467 128.21967969326943 91.60372432615956
1.764995207978465 12.907110246953422 117.59035344972467 95.51319177598249
1.7844168700628855 12.885563908158337 107.93652672778252 99.60916221264449
1.803383504859502 12.862603409030294 99.16859737223608 103.90312613579395
1.8218705937887485 12.838199335540544 91.18460196788348 108.40648145373525
1.839858238714568 12.812329156558727 83.9299504382736 113.131325417667
1.8573232074550414 12.784969375540085 77.32606911409931 118.09088253156617
1.8742413536923619 12.75611007565301 71.29806359820627 123.29951514105817
1.890126010903015 12.725949765906389 65.92597834938695 128.8259469119617
1.9027738605687017 12.69417987111919 61.56578094655758 134.9396118153277
1.9119653238508634 12.658912807526589 58.02917196776911 141.7049220258446
1.9180003379945483 12.619352574042653 55.10021472905916 149.1579734635241
1.921161151108292 12.575098588680046 52.636912578492 157.33695162077115
1.9217982208915851 12.526214250636128 50.533613626189016 166.28298791285235
