M[M_sun], R[km], Lambda[1], P_c[MeV/fm^3]
0.2416277750616976 15.618515526848569 2160338.09801669 3.5677787854173952
0.2522408903718641 15.314086877000747 1768117.8347993048 3.759413959266139
0.26315023644779534 15.04582297110812 1454106.1905521965 3.958374249367808
0.27435833066247906 14.808592619927436 1201362.9219218534 4.164996187610013
0.2858629265332177 14.598339059642353 996855.1910741534 4.37957204953684
0.29766369152657673 14.411581020320828 830334.8422126493 4.60225648929039
0.30976393938229163 14.245328952847098 694174.4201777613 4.833460586549881
0.32216277868758647 14.097074764724582 582391.0134277686 5.073481658983796
0.33486086444701946 13.964816469108365 490190.90736775927 5.322629818954961
0.34785841151116587 13.846602063963264 413860.3924995904 5.581153479800234
0.3611566850029198 13.740908317336626 350383.0251823709 5.849463570145325
0.37475627254006544 13.646454716139539 297493.07105646445 6.12792037259576
0.38865882447379946 13.562006397952084 253235.29575419077 6.416890592921386
0.40286106452209 13.486616309518983 216087.95246566276 6.716756347882956
0.4173670686667061 13.419307017095255 182509.49223981606 7.027915773594105
0.4321752060279068 13.359282255440505 158426.04648071455 7.350783664395374
0.44728771613941865 13.305857952955797 136090.78542388364 7.685792143880324
0.4627012554226146 13.258412536207118 117139.11141514688 8.03339136985669
0.47841767891197756 13.216386538369632 101029.88272053379 8.394050275192706
0.4944360459038346 13.179270642947651 87295.52906633154 8.76825734669868
0.5107559253251869 13.146617501893335 75554.3058957246 9.156521444422305
0.5273767622378239 13.118027024227002 65514.39227533748 9.559372663998554
0.544296672458396 13.093157574867686 56896.444439572195 9.977363244988947
0.561515468158152 13.07163057571996 49495.058137427506 10.411068528477864
0.5790287564341827 13.05317586203972 43120.294213321926 10.861087967556731
0.5968376746113734 13.037542708356995 37622.16707569185 11.328046194734732
0.6149389773895142 13.024400104608281 32872.611764070185 11.812594150755444
0.6333303734513814 13.013597385968854 28761.123014756286 12.315410279783459
0.6520069713077415 13.004903959767953 25199.434663034637 12.837187584050792
0.6709710963539476 12.998097824774419 22106.366405215857 13.378596778428271
0.6902126067416022 12.993032480009 19415.783832275065 13.940481017160208
0.7097339546857757 12.989504355248902 17074.729831621622 14.523643141606836
0.7295256602198118 12.987402736407692 15035.513238493926 15.128920811742063
0.7495840839944062 12.986541580177025 13253.35643709134 15.757188243326542
0.769907124986549 12.986810027674617 11696.80135217108 16.40935806325463
0.7904863936373063 12.988065779322971 10333.265854823869 17.08638329345091
0.8113181231527457 12.990215271928118 9139.270660415721 17.78925947459196
0.8323940791745992 12.993115802127816 8090.971838989128 18.519026941886384
0.8537105168053449 12.996691915910718 7171.140453834814 19.276773266160184
0.8752556263485429 13.000837688218125 6361.596042050696 20.063635874573734
0.8970258875577918 13.00544016080544 5649.685578850029 20.880781005411876
0.9190105058993898 13.01044380200609 5021.710429050586 21.729451865065368
0.9412057739687364 13.015726706903472 4468.2353300870855 22.61099442393489
0.9635963248147399 13.02122911057089 3979.8124991974337 23.52677882693221
0.9861757995485628 13.026874123843102 3527.9360107206194 24.47824167152035
1.0089337409308963 13.032595824688501 3164.8490341116567 25.466890083244053
1.0318552629954425 13.03832750226652 2826.258732883606 26.494306108114465
1.0549421835909685 13.043967172936219 2526.2065179245074 27.562107612335314
1.0781713153304813 13.049485850137636 2260.145011228242 28.672006649515684
1.1012941251250643 13.05465348035455 2025.711847774854 29.830701225324606
1.1216212164766737 13.056411352945057 1838.7341335481608 31.094175252721545
1.1388971939860444 13.052602063478028 1688.9906487768637 32.4804429656643
1.1537138575405428 13.043045241943087 1564.2359033871892 33.991208297409386
1.1665344068227914 13.027855800185035 1457.792519611561 35.62771006992142
1.177743415653848 13.00727655894824 1364.1834227974493 37.39165720178128
1.1876519376611252 12.981728033440712 1280.4400114212026 39.28489621999285
1.1965105708257786 12.951477312006977 1204.067778015499 41.30966191045562
1.2045358538583102 12.916880142646006 1133.513026508189 43.46846886963282
1.2118927478294828 12.878160138881958 1067.3017764517062 45.76421846769999
1.2187340649315146 12.835662495307197 1004.9400302308635 48.20025954003038
1.225192707255924 12.789647075105927 945.7681838771495 50.78036864071308
1.2313924254368385 12.740401092706064 889.1196870807917 53.50782348643215
1.2373984339168247 12.68814316725657 834.9878169220069 56.38819106275511
1.2433011818472945 12.633164788040455 783.0827259924484 59.426631458514855
1.2491420418737005 12.575680441645854 733.3712709826935 62.629950258194434
1.2549820399294014 12.515947783847174 685.7784711686027 66.0050078112924
1.2608375052055802 12.454124622980288 640.3912779246893 69.55930781399347
1.2667598825813933 12.390460245500382 597.0239131629893 73.3008245484179
1.2727570713670817 12.325132660070835 555.7498437757691 77.23833736095678
1.2788458726178553 12.258321741012422 516.4931394446894 81.38205999012816
1.2850237479138726 12.190214177525554 479.42336198011566 85.74251087802196
1.2912859964122698 12.120944533825753 444.4615850263456 90.33233318504467
1.2976156064724982 12.050773786232657 411.6198824158846 95.16727344552572
1.3039247852539793 11.979854209194748 381.0019646680787 100.26926589034518
1.3100916336670456 11.908472091247003 352.6993516665059 105.66924955216356
1.3163589318811826 11.835496514556596 325.92186612329266 111.3345366627963
1.3228606915227943 11.761202623028524 300.5284394645798 117.26318071668841
1.3296475446099898 11.686044160973035 276.60417547278985 123.47060184278814
1.336710993485106 11.610409245650388 254.11827760230335 129.97310265194238
1.3440225505551755 11.53452291619523 233.13441099788758 136.78857297985996
1.3515510614613986 11.458595216329746 213.63746355575483 143.9363901626531
1.3592657841495102 11.382785201177018 195.57497866297385 151.43768296811825
1.3671152336891568 11.30719197361785 178.92404249744544 159.3136106409671
1.375068059788218 11.231923856505217 163.63918801043758 167.58884556523492
1.3830538095050138 11.156984227774698 149.59672443077193 176.28899369861674
1.3910441493920631 11.082451352235184 136.77325416428894 185.44182854867296
1.39898281967441 11.008310091516337 125.06843665216866 195.07683409590183
1.4068215107903066 10.934553959953424 114.40092778678313 205.22694442305914
1.414515107780623 10.861182720622159 104.70181042617457 215.92690551964387
1.4220163023595296 10.788177669075745 95.89083261105293 227.2145277328732
1.4292799085325236 10.715521039583603 87.89249873796744 239.13109235605887
1.436262406798423 10.643121480315665 80.62991544553411 251.7203525211228
1.4429143720868383 10.570948929007008 74.04883830542184 265.0311464535388
1.449218323772588 10.499024405164766 68.07963829334972 279.1157251889392
1.4551090928547274 10.427213975909241 62.66991559212418 294.0310175422504
1.4605537913477407 10.35548711025636 57.76478869677878 309.8388674005524
1.4655510983572086 10.283892221042093 53.32234504399179 326.60692967044497
1.4700375851578684 10.212325212145617 49.290581556095496 344.40904841675643
1.4739916148011825 10.140692760017133 45.63968626526268 363.325141351455
1.477380992309288 10.069006949957418 42.3242763438371 383.4437444497778
1.4801792200637853 9.997175865543621 39.31411372786728 404.86073938942553
1.4823757864095177 9.925257998937834 36.58755418531598 427.68165183492454
1.4839427605329676 9.853220908609362 34.10521214105196 452.02206366681827
1.4848584323352707 9.78095836165858 31.856111683089146 478.0089743306119
1.4851067718373894 9.708505443142538 29.80854908150535 505.7819538722745
