M[M_sun], R[km], Lambda[1], P_c[MeV/fm^3]
0.2416277750616976 15.618515526848569 2160338.09801669 3.5677787854173952
0.2522417557166174 15.314066448879524 1768106.4026279005 3.7594342302786767
0.2631524902874633 15.045755602758835 1454109.2613424098 3.95841614485959
0.2743621534747147 14.808501060314692 1201312.01459161 4.165061636950617
0.2858680690225177 14.598234105240072 996686.9848141026 4.379662160672654
0.29766987682092877 14.411501807602631 830256.6758577789 4.60237370270465
0.30977103456142413 14.245237784847832 694127.3766626358 4.833606899956688
0.3221716164627606 14.096988308174812 582328.8780199621 5.0736591617340565
0.33487120588948566 13.964668768128723 490097.46300610376 5.322840696873162
0.3478714762732458 13.846474104160377 413788.333679075 5.581398091224333
0.3611715376831887 13.740782816901106 350330.42433422036 5.84974595149845
0.37477295914708864 13.64633070493363 297448.4428103775 6.128243015408318
0.38867659393208787 13.561909064657845 253189.055499771 6.41725610738109
0.40288020959444476 13.486550230178487 216045.23184777927 6.717167469386426
0.4173870710320124 13.419230233852852 184764.59168118905 7.028375369718792
0.43219980884888587 13.359186179324436 158384.98802168516 7.351294742321291
0.4473127561890849 13.305776643302877 136046.68521759755 7.6863578582945555
0.462727870518441 13.258341377597914 117100.48081285524 8.034015031375226
0.47844756154949436 13.216297306998495 100996.38479418617 8.394735359337576
0.4944686183819067 13.179189392757134 87268.11017333616 8.769007503471313
0.5107899434990901 13.146556197828508 75532.97560141329 9.157340508516603
0.5274127867832226 13.117980524531939 65495.43626313123 9.560264665701053
0.5443352497963363 13.093111366422265 56878.68255552142 9.978332421816779
0.5615549772885525 13.071604247694998 49021.644337698606 10.41211933760883
0.5790716983545653 13.053141998085977 43106.733273992904 10.862225099110221
0.5968835533454336 13.037490237568075 37610.34217827673 11.329274585966028
0.6149878997950551 13.024370369749128 32860.85830994617 11.813919001231337
0.6333822473642696 13.013568168367286 28749.989090169318 12.316837067611429
0.6520625003847496 13.004882103998991 25189.836815466257 12.838732675573917
0.6710291431992209 12.99807699102155 22097.796373300705 13.380256353309372
0.6902739173201025 12.993018697442979 19409.54625816911 13.942261526659106
0.7097956472579193 12.989499475344335 17068.376920561186 14.52555139369439
0.7295906025554147 12.98739119673926 15028.61000941858 15.130963993958591
0.7496531144144415 12.986542658094274 13247.734271685069 15.759373947266832
0.7699790342813955 12.986804340576061 11691.606962799118 16.411694310802336
0.7905622690022317 12.988076115658114 10259.818711931555 17.088878564894106
0.8113961376236803 12.9902203522783 9134.961720558425 17.791922738763713
0.8324755909467354 12.99313772602938 8087.366607457938 18.521867688484598
0.8537939841767691 12.996717248752644 7167.808617930577 19.279801540414464
0.8753436226904048 13.00084825671798 6319.906116526597 20.06686231444108
0.8971166828096725 13.005455327395206 5646.954143007113 20.884238218968733
0.9191060136227625 13.010459184329392 5019.41139890521 21.733131592584126
0.9413024690019933 13.015750993782873 4466.076208556246 22.61490938064581
0.9636961026558984 13.02125042260228 3977.6750984294913 23.53094250139721
0.986278978713412 13.026906537008902 3545.5353726909802 24.482668378958547
1.009040529405723 13.032621288504034 3163.215339820325 25.471595022869543
1.0319646379181835 13.038359336540772 2824.8628471625943 26.499305424814455
1.0550535127363543 13.044001928633346 2525.0407972723906 27.567388117433406
1.0782858229599428 13.049517452233397 2258.993730293998 28.67761540911821
1.1016509249023234 13.054837699811184 2022.6147668025505 29.83183462996326
1.1251361142185976 13.059907331237152 1812.3858872612534 31.031975417735335
1.148728102284156 13.064665663670747 1625.5642197963034 32.28006986352556
1.1724157211383968 13.06906194059642 1459.25377777783 33.57825943084772
1.1961815809446192 13.073035566924748 1310.9942069339966 34.928802424544266
1.2200129478192305 13.076543849087145 1178.747994430297 36.33390868099046
1.2438950205963826 13.079522260465364 1060.7681568015205 37.79597118378822
1.267811707543657 13.08193632990062 955.2967596571966 39.3178699781557
1.2917447177770276 13.08372965607177 857.4472548187142 40.902411521
1.315680924512797 13.084859187172468 776.7661421244915 42.55192598689502
1.3396010107123788 13.085271291657117 701.3077460734435 44.27006072352489
1.36348658302214 13.08493979384349 633.6716852719131 46.05984056889401
1.3873226522422777 13.083807321982665 573.0356184868259 47.92452820001641
1.4110891925877143 13.081841864665098 518.5907827240012 49.8680024381622
1.4347663394574623 13.078995426724596 469.7348993552824 51.893788891126704
1.458336177256399 13.075240515097839 425.7758650031912 54.00603430251204
1.4817796688440519 13.070526888161899 386.25958460629903 56.209252235090496
1.5050737284354923 13.064821895402476 350.71702647520436 58.5073039191775
1.5282004192042928 13.058084886647762 318.69625066878984 60.90548144614038
1.5511388674350948 13.050294056737586 289.8268095083524 63.408824949218676
1.5738660620901588 13.041402302768255 263.7973983231866 66.02264941927696
1.5963647765425473 13.031372765961706 240.30432590639484 68.75261782476872
1.618602379234692 13.020174559487234 219.0584064860857 71.60476936741708
1.6405767241032292 13.007801937668534 199.87463535892525 74.58555015580416
1.6622508756762862 12.994190000147325 182.54203049477195 77.70184652345434
1.6836032870542539 12.979323386591478 166.8284208422242 80.96102124358661
1.7046145952495244 12.963168588326491 152.58942791850671 84.37095292128605
1.725261912574833 12.945701680469107 139.70142696074666 87.9396431482562
1.7455221472082194 12.926888482505635 128.00669201899254 91.67600846119514
1.7653698301925902 12.906710529261751 117.39571556347957 95.58978285666585
1.7847896142106747 12.885135904724624 107.76410539718681 99.69061677900368
1.8037500460773304 12.862139374170221 99.00253001065849 103.98953024428738
1.8222335403191148 12.837699573001153 91.0340823341492 108.49819190399401
1.840215048231377 12.811794285279442 83.78933286719617 113.22881451720728
1.857672950781576 12.784398204095895 77.19708409362707 118.19455265743507
1.8745846249427085 12.75549849383647 71.1775677803033 123.40958606292935
1.890926323645855 12.725064683737639 65.7004234825195 128.88921094720055
1.9066765314067338 12.693086461595026 60.69673726385477 134.64994015447644
1.921814274811114 12.659544412641463 56.12924039174531 140.7096131527995
1.9363183796513987 12.624420654178044 51.958409019981154 147.0863066986154
1.9501581252243696 12.587683027893513 48.144296188169356 153.80143470978763
1.9633287952229983 12.549360065164853 44.659057693284375 160.8765413295604
1.9758082700224433 12.509445793359577 41.468721174140384 168.3352783971073
1.9875629862643707 12.467877456654369 38.54417331012124 176.20360447625987
1.9985807133878042 12.424674348419938 35.866349896254995 184.5092658714592
2.0065380333701848 12.382709575989171 33.75249255262347 193.85632746431455
2.008416442169277 12.340662665546402 32.41094643350475 205.03994110541507
