M[M_sun], R[km], Lambda[1], P_c[MeV/fm^3]
0.2416277750616976 15.618515526848569 2160338.09801669 3.5677787854173952
0.25223972181451976 15.31409784071469 1768013.3107855604 3.759394490459533
0.2631480733700589 15.045874251362116 1454205.8283387397 3.9583340121467225
0.274354721430474 14.808660147220516 1201410.4238718678 4.16493332928751
0.2858577911615291 14.598439158068114 996831.2532746502 4.379485506343873
0.2976583168331135 14.411673833252149 830440.1513370763 4.60214391772838
0.30975709510420146 14.245386425358209 694269.5771092684 4.833320068387248
0.3221541076679752 14.097166208520992 582474.9968581118 5.073311188015718
0.3348506435138178 13.964921565499003 490242.31497620395 5.322427296360267
0.34784657236377725 13.846704277773316 413923.0939137704 5.580918561781151
0.3611424459855529 13.741024063235388 350449.0336778952 5.8491923807363735
0.3747412562473468 13.646551796525195 297555.8342156863 6.12761051949261
0.3886412263987693 13.562123231019209 253290.07171249177 6.416539569907281
0.4028424559667031 13.486728746803148 216133.69580964046 6.716361528539243
0.4173463870491211 13.419386402806396 184851.3626651613 7.027474404607754
0.4321531963286274 13.359364433340339 158453.79036653155 7.350292858434222
0.4472626805142722 13.30595610473751 136121.96422877721 7.685248872005404
0.4626744592879495 13.258493841593205 117166.50016406375 8.03279245343775
0.47838935318656867 13.216442825874873 101052.72372643405 8.39339237729061
0.4944057113852782 13.179333718500875 87322.6781724816 8.767536962875935
0.510723559464632 13.146689491559433 75578.32416018462 9.155734892939227
0.5273414104045427 13.118085680261071 65533.36890842793 9.558516075349958
0.5442583006765712 13.09320580269218 56912.85708778256 9.976432550732978
0.5614750213605987 13.0716695915189 49510.689653760666 10.410059449304224
0.5789868090512048 13.053218782484866 43136.30342409207 10.859996000538597
0.5967922941269954 13.037564709115369 37635.40531946271 11.326866599703592
0.6148917551135513 13.024437650800467 32884.4269834288 11.811321935734485
0.633280338279898 13.013623571346306 28770.205789328098 12.314040185409535
0.651955874655593 13.004929602928636 25209.43560152005 12.835703896723196
0.670915684505844 12.998137067415906 21940.424436380355 13.377003166874697
0.6901560293054169 12.99304380584739 19424.52073575894 13.938771287854008
0.7096720774130578 12.989519017899665 17081.96774236705 14.521810758603424
0.7294619397696269 12.987409114665592 15041.352960189444 15.126958874738902
0.7495178798964711 12.986542264808849 13258.810165094397 15.75508946416175
0.7698380692893849 12.986807385935348 11701.654379564787 16.40711474072698
0.7904151576021511 12.98806647294477 10337.880527251109 17.083987286334022
0.811243207153253 12.990206747763557 9143.41537331223 17.78670217270561
0.8323162147412397 12.993116021743894 8094.577206572727 18.516299235076165
0.8536291904049391 12.996682964476234 7174.357531634456 19.273865511024965
0.8751720005124907 13.00081153939225 6364.520132355221 20.060537858766224
0.896939344359155 13.005414124335417 5618.664839143359 20.877461424608974
0.918922655489003 13.01040579742524 5024.292010856425 21.725918649784376
0.9411127989106028 13.015702966949231 4470.3517948192775 22.607235367945584
0.9634999403894153 13.021207346886314 3981.684809062386 23.52278098172454
0.9860762208777956 13.026859254142613 3549.2392865487473 24.473991295127252
1.0088324780379792 13.032569628470274 3166.7516713843065 25.462372585213156
1.0317558259329218 13.038283371857146 2827.9811133028697 26.489505990315894
1.0548337112665307 13.043941055054486 2527.6275113470683 27.557037536096637
1.0780582773238316 13.049463445235938 2261.3772671916477 28.666621433334747
1.1014192560910494 13.054784984543788 2024.8104890442567 29.820159368618107
1.1248966491007317 13.059856446002582 1814.584845339384 31.019578550357114
1.148482996206304 13.064618314402066 1627.3615726715034 32.2669084655891
1.1721644872330854 13.0690184084642 1460.8154783213165 33.56428778532292
1.195926557044316 13.073002425945303 1312.4783238382286 34.91397181850172
1.219751543879391 13.076513443459026 1180.0194368669318 36.31824910394086
1.2436283515061146 13.079500276340378 1062.0366912450663 37.7793493586295
1.2675391023242646 13.081912656619398 956.4587159502431 39.30022701049635
1.2914675235753184 13.083715133864152 862.1277361081295 40.88368454187642
1.3153985516069195 13.084851129461873 777.7453108316624 42.532145347087
1.3393145151352124 13.085270899690535 702.1550513366271 44.24906199554091
1.363196670871912 13.084949756293344 634.455580071031 46.03765280095566
1.3870282892248353 13.083824983025949 573.7587395362997 47.90096938136343
1.4107903243679043 13.081868343221533 519.2360028307182 49.843099606552514
1.4344652859506735 13.079035559287217 470.33843471695417 51.86734016786099
1.4580307706596867 13.075294647497037 426.3233918098675 53.97806385781806
1.4814712441752425 13.070594031711103 386.76454068559127 56.17958273678585
1.5047632527923214 13.064901082833815 351.16167023339625 58.475861473735236
1.5278868512457333 13.058186210934123 319.10623910550413 60.87220206597147
1.5508234953112632 13.050406888453251 290.20203894985525 63.373589499425094
1.5735501014747237 13.04153213959552 264.14881417453796 65.98533004846301
1.596045843037732 13.031522486905343 240.6178782514521 68.71307725924153
1.6182838506600403 13.020344308420306 219.35066002580518 71.56286014148405
1.6402586657236047 13.007991476176276 200.14608569928586 74.54111377173244
1.6619311418848612 12.9944015560255 182.76481185368195 77.65471253395526
1.6832843365531949 12.979555868170369 167.04998288930594 80.91100624889229
1.7042983059034664 12.963424715213977 152.80733077141238 84.31785947200135
1.7249473897528744 12.945979913418277 139.88988970576256 87.88344785043161
1.7452079991828175 12.927194904804042 128.18265789281068 91.6163003849938
1.7650612098329304 12.907038905963862 117.55860996772485 95.52651706030285
1.7844817506264818 12.885489026059094 107.90397610355993 99.62333351910412
1.803448214115987 12.86252361217934 99.14117732749087 103.91815843373142
1.8219348241088842 12.8381115908258 91.16413134277845 108.42243679999254
1.839921647221035 12.81223657548804 83.9060167646984 113.14831899030239
1.857383464039378 12.784870446694402 77.3015853460469 118.10894016835142
1.8743009562480988 12.756002982695003 71.27742098819587 123.31866425405384
1.8906496108822728 12.725602244164406 65.78543738244547 128.79246684671503
1.9064079408162586 12.693656817276178 60.779612226636154 134.5469364909204
1.9215535939227362 12.660147069640807 56.20682382384301 140.59987570483656
1.9360648203247237 12.625062602482627 52.02959847498925 146.96959497193217
1.9499203620135257 12.588385322376665 48.211892849376504 153.6772062391028
1.9626178504695027 12.550598524343602 44.80925048328002 160.82946449765925
1.9716574514580094 12.512117563082871 42.14224963303962 168.86560323537475
1.9767737924530924 12.470584701116874 40.063928856682466 177.89037094689195
1.978329361894841 12.424889810627464 38.41675637779821 187.95865409799558
