M[M_sun], R[km], Lambda[1], P_c[MeV/fm^3]
0.2416277750616976 15.618515526848569 2160338.09801669 3.5677787854173952
0.2522393331546111 15.314109960496902 1768205.4874927131 3.7593870996371908
0.2631471233537871 15.045876421602943 1454180.3549816494 3.9583187372160547
0.27435281448621707 14.808697193597638 1201435.319276411 4.1649094670090845
0.2858562885973799 14.598460456584382 996923.5009037105 4.379452652970668
0.2976560729839566 14.411695482799253 830454.4832474878 4.602101183716432
0.30975386459023185 14.245445844929991 694227.2137035152 4.83326672563918
0.32215067207330406 14.097196809004455 582503.4028310339 5.073246475047009
0.3348478064817854 13.964931218995526 490275.50349182653 5.322350416537078
0.3478416232198414 13.84670364230824 413926.97161770466 5.580829384681809
0.3611386866846976 13.741091888879998 350477.7712529653 5.849089435136901
0.37473586506033796 13.646584555894979 297571.7735059992 6.127492897377987
0.38863441600762677 13.56217469322806 253301.8404596074 6.416406320031185
0.4028356140264883 13.486741693069222 216143.47713195925 6.716211654037247
0.4173386276108169 13.41942236878842 184853.37889414 7.027306860457484
0.4321444995965115 13.359398807515266 158481.44464316373 7.350106548751584
0.44725339148207266 13.305973650769452 136129.26550906582 7.685042647165113
0.46266418998605663 13.258529123950748 117171.87420015379 8.032565107005201
0.47837873456886176 13.216473617255607 101068.5056444808 8.393142642751778
0.4943936968780636 13.17936335339104 87329.64640232686 8.76726351014985
0.5107107610078397 13.146701086273621 75582.75865549502 9.155436324657643
0.527326559427966 13.118127244737126 65541.5426328613 9.558190922886727
0.5442452014199848 13.093213255337979 56921.03361441096 9.97607926996462
0.5614593725336674 13.071712326156403 49514.607616155066 10.409676416082101
0.578970797392607 13.05323267910433 43141.03616927319 10.859581505851157
0.5967759124305901 13.037575216863116 37640.06188052274 11.326418844506037
0.6148750328968884 13.02444101896034 32888.96709989373 11.810839025421076
0.6332615048838217 13.013651973900238 28774.71747636206 12.313520123901913
0.6519361181433158 13.004942613988138 25211.874034125933 12.83514072006241
0.6708945063242423 12.998124305799669 22116.06423509796 13.376398267688625
0.6901341394616132 12.9930435453732 19427.247294801124 13.938122315555844
0.7096489999061867 12.989532819434103 17084.340854929214 14.521115232661927
0.7294372779928534 12.98739937309378 15043.68181756736 15.126214176352631
0.7494927466636795 12.986538933355522 13260.801061567368 15.754292827341239
0.7698118218817404 12.986806236614928 11703.519077208475 16.406263242739826
0.7903877133797267 12.988057802893948 10339.4963651115 17.083077837465066
0.8112147532969078 12.990203156757223 9144.933095597538 17.78573150527952
0.8322871128089735 12.99310718573801 8095.835801627954 18.515263891686978
0.8535987710860392 12.996675297590501 7175.807620264988 19.272761831910525
0.875138174990481 13.00082580184663 6365.56027069957 20.05936196826219
0.8969066088848879 13.005418214290295 5653.441070680259 20.876201442265558
0.9188881274306685 13.01039804079506 5025.199901688103 21.724577585614608
0.9410775079887371 13.01568792694434 4471.257086570818 22.60580858966326
0.9634631588172526 13.021199356554717 3982.40640645036 23.5212635753714
0.986038850446453 13.026847284926319 3549.8127417931632 24.47237804565433
1.0087934435806585 13.032564382537474 3167.40732546327 25.460657955601505
1.0317151334094017 13.038277367000726 2828.5187808719757 26.4876840991169
1.054792501410531 13.043929326978965 2528.058764398763 27.555113188461394
1.078018258683368 13.049450650346285 2261.872956108809 28.664577482934423
1.101374948695706 13.054773516047552 2025.2079332275412 29.817988772863895
1.1248532585921818 13.059847985282255 1814.9305491869989 31.017273815203797
1.1484378765822951 13.064609775944719 1627.677426501696 32.264461613075845
1.1721177256731334 13.06900839873298 1461.1282061984339 33.56169031855919
1.1958778343463163 13.07299089184568 1312.8063783036764 34.91121468387722
1.2197039826616243 13.076497516264373 1180.3535884302266 36.3153378755503
1.2435783751707075 13.079491879187234 1062.2561498364116 37.776259265847315
1.2674885762849377 13.081907206723118 956.6217556079861 39.29694710775229
1.2914164718500818 13.083712756164438 862.2945834310487 40.88020314505167
1.3153455048484888 13.084845544239917 777.9391601823143 42.52846809710744
1.339261024178823 13.085271239359086 702.3195151408786 44.24515833369309
1.363143126523575 13.084949249068234 634.6004671709184 46.03352812591391
1.3869737554688035 13.083829072012357 573.8914557787575 47.89658986740424
1.4107353081744283 13.081877638812301 519.3528265463643 49.83847027854359
1.4344088072502408 13.079045703723164 470.4394148599789 51.86242350866828
1.4579736973754926 13.075303826316071 426.4114470843848 53.97286435923824
1.4814136950445767 13.070607631805705 386.84530406472675 56.17405869541116
1.5047051691245807 13.064916973078303 351.2410262332291 58.470016655192246
1.5278285525572624 13.058202603042448 319.1787986070692 60.8660158304481
1.550765656541991 13.050429134110763 290.27468059720917 63.367039707930545
1.5734918546575993 13.041555515767653 264.2172218033205 65.97839294251037
1.595986578541479 13.03155251496794 240.67038614226013 68.70572732973952
1.6182238065295942 13.02037640626352 219.39918807960538 71.55506998576035
1.6401996649381017 13.00802622275506 200.19824973415402 74.53285393749447
1.6618711038635068 12.994442985687229 182.80883902531355 77.64595134886252
1.6832254512028786 12.97960061389305 167.09084816717004 80.90170963426705
1.7042382927793827 12.96347351378956 152.8474759579211 84.30799073904205
1.7248871618010913 12.946032173078855 139.92081505304125 87.87300265069764
1.7451501206379287 12.927248662068973 128.21428724920995 91.60520236478801
1.7650036621933722 12.90710073369557 117.58823052431691 95.51475786735695
1.7844245244773123 12.88555567207961 107.93231024522858 99.61082773240858
1.8033917333457 12.86259494200172 99.16564613466807 103.90489284320131
1.8218781165026738 12.838189959578424 91.18297709149292 108.40835664177477
1.8398655275388638 12.812317670111646 83.92876723720734 113.13332262208424
1.8573292006564832 12.784959069460529 77.32050830997616 118.09300478886993
1.87367936806478 12.756337519274771 71.4498942874027 123.36308626699896
1.8865269738577148 12.725886236275175 66.74584471298573 129.21552681422892
1.8957707520542477 12.691663885047165 62.948582078552924 135.70684738072913
1.9017259916301168 12.652747097764047 59.82207238476635 142.86661060294423
1.9048176640586363 12.609054188083867 57.19325704109555 150.72693813044842
1.9053611763097027 12.560435168775385 54.94503251330686 159.32217587017072
