M[M_sun], R[km], Lambda[1], P_c[MeV/fm^3]
0.2416277750616976 15.618515526848569 2160338.09801669 3.5677787854173952
0.2522379513885979 15.314147873543824 1768480.438301055 3.7593596122314006
0.26314399385959536 15.04593593446311 1454355.142610154 3.9582619281789557
0.2743481889293424 14.808827034647157 1201478.8513970985 4.164820721312569
0.2858489438511453 14.5985988732202 996969.4146054377 4.379330469438951
0.2976475820361369 14.411805345600863 830537.4424877986 4.6019422545243165
0.30974497070022694 14.245543747008242 694376.3750599759 4.833068343426592
0.3221380953812245 14.09734745981389 582588.5088471543 5.073005808328819
0.33483220522874274 13.965038758486697 490383.6102365109 5.3220645031521725
0.34782594423684393 13.84687292003103 414041.01794618776 5.580497740020557
0.3611193425339136 13.741198319267637 350553.99649954686 5.848706588422698
0.3747158698570014 13.64668128078671 297641.21332479175 6.127055472363525
0.38861086711087117 13.562294100590599 253381.821613986 6.415910779747138
0.4028096644326249 13.486872992404859 216214.31979664386 6.7156542919193045
0.4173102064719771 13.419543245619401 184914.8997871149 7.026683790904446
0.4321135105648907 13.359508760241312 158524.6689411392 7.349413697074042
0.4472195057463185 13.306083149692185 136172.38474012708 7.68427573888083
0.46262801402025433 13.258620151127657 117218.63016189818 8.031719656434
0.4783377830559452 13.216581578487007 101104.16400400366 8.39221394085842
0.49435046293009915 13.179454498364812 87363.61871180266 8.766246611580062
0.510664540084278 13.146786983917899 75611.91478225203 9.154326033907722
0.527276823311151 13.118219193097792 65567.22008175215 9.556981779543165
0.5441921820621457 13.093307672005015 56945.891008289705 9.974765532944897
0.5614032547404789 13.071775573931776 49537.97011430991 10.408252046803051
0.5789113024836724 13.053303478335168 43161.4839483377 10.858040150245781
0.5967131606650995 13.037632489446668 37657.3772909906 11.324753813803428
0.6148067899505214 13.024501701930031 32903.239285676944 11.809043275598349
0.6331908790756138 13.013674064649454 28789.225383986668 12.31158623370987
0.6518635208904263 13.004958575372285 25225.257874796604 12.833046515047924
0.6708163947921104 12.998158533961178 22128.78861999257 13.374148926686296
0.6900529887598243 12.993059886750284 19436.76095295896 13.935709099445459
0.7095645428227351 12.989541520036898 17093.42704341014 14.518528919261723
0.7293478200051331 12.9874199911558 15050.901354661048 15.12344502947224
0.7493992739128892 12.98653970466668 13268.531646363052 15.751330563633182
0.7697141259651255 12.98679037096682 11710.21217065229 16.40309699618385
0.7902863155265146 12.988042162994585 10345.831290680208 17.079696121305517
0.8111089264813942 12.990189999944924 9150.58284110327 17.782122171223698
0.8321757057557564 12.99310312392484 8101.720784426515 18.511414086153305
0.8534837315304646 12.996660766353637 7180.3654362880325 19.26865794910092
0.8750216397910764 13.000790613930302 6369.782233846064 20.05497384139943
0.896783046077352 13.00538078171638 5657.224815232402 20.871516419770174
0.9187606947257185 13.010377760019825 5028.55575128992 21.71959110079515
0.9409444775224963 13.015659941620516 4474.102286159467 22.600503421649147
0.9633291903898458 13.021160060402233 3985.1148456051246 23.515621456272683
0.9858992888013532 13.026808006741375 3552.389179053004 24.466379588387927
1.0086491793292378 13.032523754899746 3169.7217745786916 25.454282576288524
1.0315667811545537 13.038241030239273 2830.6299419939824 26.480909933608793
1.0546407024885465 13.043893606123444 2529.9756630921497 27.547920652154414
1.0778613868682354 13.049415410032205 2263.5829617827026 28.656977731421385
1.1012149929217212 13.05473586288377 2026.771894902861 29.80991817713717
1.1246878023484896 13.059809146216212 1816.14040998168 31.008704517069102
1.1482689675444637 13.064586122166842 1628.9810279152225 32.255363955659675
1.1719461692936355 13.068979130644967 1462.2933849404794 33.55203271618072
1.1957014535235837 13.07296586842039 1313.8140425240854 34.90096348160428
1.21952207804138 13.076474503785553 1181.358950509198 36.30451379489855
1.243394093828361 13.079471737616084 1063.1280461854358 37.76477022650952
1.2673002338478947 13.08188963389711 957.4522395038282 39.28475242273192
1.2912246786495862 13.08369352622531 863.0232576525789 40.86725938236633
1.315150634161741 13.084840596117143 778.5377735475726 42.514796225842915
1.3390626047759628 13.085273919193996 702.884609658277 44.23064476139926
1.3629419275351269 13.084956062319602 635.1357494581273 46.01819292070758
1.3867694349054345 13.083841061738418 574.3818781647593 47.880307295020195
1.4105297745524137 13.081895569781523 519.809757800895 49.82125901713916
1.4341993882905058 13.079074555367104 470.84887172383617 51.84414410514606
1.4577634030734556 13.075342785597694 426.7853207436973 53.95353350983634
1.4812004682303246 13.070653141638198 387.1805446229064 56.153521389385745
1.50449020269932 13.06497570777077 351.5625746180943 58.44828688917876
1.5276124691517174 13.058270784911015 319.47221928335375 60.843016887163635
1.5505490704235527 13.050505004381689 290.55164496800296 63.34268929846683
1.5732730970823785 13.041647027143378 264.4484762589055 65.95260275924794
1.5957663785832106 13.031654136847463 240.88859982621494 68.6784025591689
1.618009676298507 13.020503262150193 219.6105090727264 71.52610877720977
1.6399776646190038 13.008157601187278 200.37517659483288 74.50214682332677
1.6616513659630683 12.994587768700663 182.98129554133263 77.61338061121457
1.6830056356283094 12.979758685730594 167.25147188864403 80.86714861286526
1.7040191223884495 12.963649901820787 152.99026602164952 84.27130307400968
1.7246696116311826 12.946224911341496 140.0533358157173 87.83417217614986
1.7449327489986057 12.927461851387898 128.3369198454484 91.5639453072459
1.76478945240082 12.907329183834527 117.70113707798508 95.47098593870099
1.784211638234578 12.885802152261604 108.03490682486692 99.56433795005636
1.8031808068296344 12.86286100203597 99.26334120562117 103.85557886511467
1.8216709793755816 12.838475475208835 91.26983798805561 108.35601493854433
1.839660872808376 12.812624313287 84.0054325957976 113.07757545511167
1.8571292503407772 12.785288097579103 77.39398306715606 118.03376741408103
1.874052694502873 12.756445839852923 71.36189856333696 123.23879142250759
1.8904068570940828 12.72607393004278 65.86613049150726 128.70764752044113
1.9061704104494632 12.69415914779297 60.85138032401563 134.4566307680712
1.9213218599991146 12.66067935628426 56.273342765615844 140.50366807567522
1.9358306553002589 12.625590175319594 52.0908321560866 146.8672746875645
1.9497062727300831 12.588977583209848 48.27012147696161 153.56814545314768
1.9628846001948148 12.550689448644489 44.77280718260962 160.62765539330007
1.9753882702486831 12.510857981994768 41.573656315598704 168.0699664577973
1.9871628284707157 12.469361649792361 38.64311447133512 175.92055754070043
1.9980796260417035 12.426426581790665 35.9813113193788 184.2367376795513
2.0065794480538295 12.383171844611763 33.76183802308573 193.38176546788176
2.012025219931874 12.337884797152755 31.947749488316713 203.50654859904665
2.0145345594257 12.289483446447692 30.451749166646874 214.67688971972044
