M[M_sun], R[km], Lambda[1], P_c[MeV/fm^3]
0.2416277750616976 15.618515526848569 2160338.09801669 3.5677787854173952
0.25224174641423314 15.31407428681808 1767980.8124491316 3.759434021730551
0.263152462230089 15.045756508507827 1454111.1250496304 3.958415713837259
0.2743620192516627 14.80849517273198 1201298.0970991866 4.165060963602966
0.28586741932692533 14.598245225555006 996714.8733984425 4.379661233599318
0.2976698119790993 14.411502662907612 830267.6461263568 4.602372496795779
0.3097715371563967 14.24523011893385 694138.4362287745 4.833605394657481
0.32217269373910684 14.09695959813451 582329.1852525925 5.073657335546798
0.33487116802309347 13.964729853476536 490116.40006378654 5.322838527307374
0.34787125223399346 13.846480257691782 413799.24548735033 5.581395574591488
0.3611710307801937 13.740787799219344 350333.87989568437 5.849743046267967
0.3747720696680067 13.646344034224573 297440.16022028454 6.12823969594391
0.38867613473499235 13.561917141727022 253185.49550846498 6.417252346825515
0.40288004335542754 13.486520502035791 216047.6971599398 6.717163239594009
0.41738678357427705 13.419230772310351 184763.20491380992 7.028370641183657
0.43219857699887787 13.359190884790099 158383.00176739946 7.351289484101051
0.4473115935832963 13.30579476886769 136044.79563781613 7.686352037928872
0.4627276104249097 13.258340906753576 117100.01736749342 8.034008614799246
0.4784469312878594 13.216301757400585 101004.03705904863 8.394728310789514
0.49446759873838286 13.179196897250652 87266.22172116816 8.768999785393898
0.5107896278882452 13.146563345089037 75533.36973985856 9.15733208145204
0.5274124840823964 13.117973607856998 65495.39381015012 9.560255488178756
0.5443348144414877 13.093107568223044 56878.51206924996 9.978322450233792
0.5615546621670685 13.07159932354674 49477.28879122667 10.412108526101663
0.5790711597724856 13.05314301721102 43106.09548847566 10.86221339941838
0.5968827026489409 13.037493034095968 37609.71804168189 11.329261947285831
0.6149875137240078 13.024370932419448 32861.79439012649 11.813905370059828
0.633381713061249 13.013568455317266 28750.099051615245 12.316822387579258
0.6520620596287107 13.004878192695877 25189.659023044984 12.83871677827683
0.671027388978526 12.998084224896777 22097.318886672823 13.380239278053264
0.6902731662168238 12.99301254653563 19409.678240337682 13.942243207060278
0.7097951398912878 12.989508871386183 17069.35622646455 14.525531759698344
0.7295902750463972 12.987399013815827 15028.953633050358 15.130942971604838
0.749652359729408 12.986537215090488 13247.503105283378 15.759351458436795
0.769978288186551 12.986804188369742 11691.638721458967 16.411670272949422
0.7905614953915693 12.988075985601403 10259.865941128366 17.088852890754445
0.8113953684683228 12.990228089803137 9135.168949904239 17.79189533604585
0.8324746270182379 12.993138407807896 8087.278188398669 18.521838459536877
0.853793162906097 12.996716671676504 7167.845401301247 19.279770381868374
0.8753427054886208 13.000851426428959 6319.89839959686 20.066829116828366
0.8971157655643642 13.005462218755376 5646.956951731565 20.884202646745436
0.9191052537852401 13.010452470382619 5019.394243979631 21.733093730739004
0.9413014993548163 13.015750863822797 4466.09858900016 22.61486909833318
0.9636957600035346 13.021248412841638 3977.660245371172 23.530899659812942
0.9862773069007 13.026901893723867 3545.5240376097745 24.482622830791286
1.0090392982847654 13.032625386437315 3163.290900133157 25.471546611710437
1.0319635163365681 13.038359066449905 2824.877890905886 26.499253984522543
1.0550534445178992 13.043997885610597 2525.087590790047 27.567333783723093
1.0782845303307662 13.04952537913512 2258.919919829447 28.677557697654414
1.1016487254208482 13.054836243790522 2022.5532874749392 29.83177334179512
1.1251348817288283 13.059907413307947 1812.408484769105 31.031910341154692
1.1487268332942118 13.064665336054011 1625.5626447358718 32.28000077314944
1.1724140328322659 13.069058248963069 1459.2154664403474 33.5781860866285
1.1961794814796745 13.073040952605902 1310.9789313390556 34.92872457070158
1.2200125866164626 13.076539361396149 1178.8106851280058 36.33382647498395
1.2438937843782805 13.079528619772015 1060.7830373082638 37.79588392581562
1.2678100469685256 13.081930089335852 955.3446304641942 39.31777735896833
1.2917436698416778 13.08372430338015 861.0755129778727 40.902313210475874
1.3156793811110044 13.084854666590955 776.7747744502101 42.55182214439827
1.3395995285517877 13.085271620054518 701.3115641388216 44.26995048565609
1.3634844495391472 13.084942508164335 633.6692469297144 46.05972408818187
1.387321234054406 13.083810685683932 573.0337112894897 47.9244045207132
1.4110874136282407 13.08184018644031 518.5799353455672 49.867871702243505
1.434764738667317 13.078995726726825 469.74148942354066 51.8936500384951
1.4583354054675401 13.075241834094896 425.77242074623115 54.005887460089355
1.4817777278667084 13.070527093176379 386.27979773458424 56.20909689621967
1.5050718748812462 13.064819884196625 350.70397829091576 58.50713884669893
1.5281988124664245 13.058087586022772 318.6941185782623 60.90530672859633
1.5511370326544525 13.050292815442738 289.811658338708 63.40863996098812
1.573864310083626 13.041400583303723 263.8023836129156 66.02245348895839
1.596363080578924 13.031372822577808 240.30269896286146 68.75241023147188
1.6186013986627699 13.020174138123318 219.0604689982603 71.60454933672062
1.6405749659928202 13.007803005080785 199.87612662440435 74.58531685534174
1.66224800067805 12.99419268827916 182.53562810090722 77.7015990580952
1.6836015346290403 12.979322727758626 166.8254036168334 80.96075865016628
1.7046120008851255 12.963171196130453 152.59032508095203 84.37067416284354
1.725260081645343 12.945702217257374 139.69823216985128 87.93934810196731
1.7455191199712918 12.926891117396174 128.0041689738588 91.67569496888196
1.7653681319410395 12.90671045406839 117.4005387365225 95.58945068233871
1.783328143578237 12.885343347186764 108.34033492466725 99.80732800929268
1.7949864259165 12.860319570598243 101.98191911830621 104.7182138068878
1.801079420829085 12.829002044544442 97.44041725980277 110.36353879750303
1.8026776382652034 12.790831483021075 94.10439701727182 116.75850403894428
