M[M_sun], R[km], Lambda[1], P_c[MeV/fm^3]
0.2416277750616976 15.618515526848569 2160338.09801669 3.5677787854173952
0.25223971424892433 15.31410039108176 1768060.9792612563 3.759393904375264
0.26314797919308225 15.045872021655086 1454234.5883295117 3.9583328008595933
0.2743546771804704 14.808681618466537 1201487.362888076 4.164931437029706
0.2858573738851648 14.598441448806547 996832.1041838207 4.379482901096991
0.2976580560286398 14.411665825195808 830381.8930755669 4.6021405289504385
0.3097571514433477 14.245402901020107 694251.0999935331 4.833315838338708
0.322153965483961 14.097169161140277 582464.7894367389 5.073306056309306
0.33484996610557216 13.964862286563209 490242.834912272 5.3224211998212
0.3478461408209222 13.846704884113768 413917.9567023194 5.580911490065257
0.3611420566461291 13.74102538149799 350448.79800803313 5.849184217173459
0.3747405886126229 13.64655558396982 297544.6779907768 6.127601192074869
0.3886406596822896 13.56212656945516 253293.4499619798 6.416529003198367
0.4028418861728263 13.48671165842835 216133.65983601924 6.716349643485178
0.417345926081239 13.419395821732044 184855.12948397014 7.027461118335331
0.43215294189021664 13.359364313223356 158456.4535354879 7.350278084036689
0.4472618573378486 13.305937781130021 136115.01340897303 7.685232518314031
0.4626741768240031 13.25848862376656 117165.7069714773 8.032774424778552
0.478388575018775 13.216445214301904 101057.27943991598 8.393372573225056
0.49440501776049395 13.179325951063213 87317.83068338217 8.767515277924247
0.5107225357398057 13.146682867324598 75578.58777553364 9.155711216285411
0.5273401755523637 13.118088463402977 65534.48117258449 9.558490290526905
0.544258308658212 13.093198867216072 56914.29577221123 9.97640453528627
0.5614738420791483 13.071687642802395 49510.879378747944 10.410029074432995
0.5789855156837378 13.05321926793466 43135.905159654336 10.859963130711868
0.5967913247465715 13.037563801126542 37636.21895543605 11.326831092250304
0.6148896193939618 13.024448507340493 32884.83380936087 11.811283640405074
0.6332783875903452 13.01362632376242 28770.94383296003 12.31399894390705
0.6519542819760409 13.004917764565711 25209.240343416885 12.835659236086011
0.6709144441114369 12.998121090308187 22113.618325900068 13.376955197538951
0.6901543843740445 12.993050739063762 19424.242239227216 13.938719823408075
0.709670140502878 12.989523036028215 17081.745330639344 14.521755602330455
0.729459873533184 12.987400933858776 15041.35309067825 15.126899818956351
0.7495158881417721 12.9865422922618 13258.973223809779 15.755026289514142
0.7698359883515131 12.986807287493011 11701.801735907819 16.407047215428147
0.7904128890800707 12.988059514617044 10337.92466055693 17.08391516535506
0.8112409507636338 12.990206463454243 9143.535717618832 17.786625196904165
0.8323138059811666 12.993103040125797 8094.719085575483 18.51621713026313
0.8536258692713639 12.996683422496783 7174.536690375918 19.273777986962923
0.8751694670226191 13.000811655859717 6364.503872484896 20.06044460809543
0.8969348522357591 13.00542917571547 5652.262086521427 20.877361505153825
0.9189197703444465 13.010411449440868 5024.283373085659 21.725812300247757
0.9411099952012636 13.015701898953555 4470.413997965504 22.607122220962232
0.9634979936389519 13.021204514672672 3981.7181320866703 23.522660647590662
0.9860733650374379 13.026858690129098 3549.2880572812314 24.47386336026033
1.0088295152174405 13.032571961864416 3166.871935050928 25.462236610496074
1.0317527715222568 13.038283039512871 2828.019939841813 26.489361509315714
1.0548319404842557 13.043941182416658 2527.6831983321927 27.556884929884582
1.0780560505016927 13.049462805788574 2261.455469376132 28.666459342111988
1.101414905379476 13.054787348352285 2024.8200095032626 29.819987233864524
1.1248931881839128 13.059858752500334 1814.614016779157 31.019395777748358
1.1484804076106305 13.064620222809035 1627.413867032505 32.26671442242243
1.1721614142964891 13.069016970460892 1460.8386337828317 33.564081797740286
1.1959222984783473 13.072998765854097 1312.5375099340863 34.91375316849245
1.2197477837777508 13.07650657167682 1180.0938722356016 36.31801823356317
1.243624688457211 13.079497484356986 1062.029336124078 37.77913567671149
1.2663135052797494 13.080964812912383 961.0308470493477 39.330036671153174
1.2860422825932851 13.078146602738036 879.3434935089718 41.0225975152515
1.3032348559339237 13.070287322844328 811.3476942014148 42.86072592193434
1.3183016895516828 13.057278535151355 753.2696261538779 44.84740086449697
1.3315841848374572 13.039274896705884 702.5900618117093 46.98585501322085
1.3433531831979322 13.016390743824351 657.5402389506884 49.27974046628034
1.3538745854610097 12.988999349893373 616.7889677968658 51.73299784070322
1.363348376397373 12.957315999291191 579.6286610352635 54.35009669793175
1.371933876343974 12.921575926166536 545.1702401448929 57.1359802963826
1.3797883483710365 12.8820543665422 513.0578358103103 60.09603733946223
1.3870319181099842 12.838949648195438 482.94235668436437 63.23622894661285
1.3937624895847642 12.792528752692569 454.534011169036 66.5631446372783
1.4000809095792464 12.742957785989345 427.5145217538311 70.0837029072285
1.4060896697725371 12.690515910034915 401.8962626536537 73.80518379239645
1.4118185070939708 12.635375872747515 377.52346973883084 77.73699294635408
1.4173302562910215 12.577753628550168 354.3146551509727 81.88920367216733
1.4226604977507757 12.517835339480882 332.22418327586024 86.27259546958652
1.4278355397934357 12.455781492507919 311.190840003921 90.89895377124235
1.4328838339620675 12.391777917696201 291.25137163604944 95.78118585588281
1.4378186044976813 12.325954728295727 272.3401986796806 100.9324944472707
1.4426545744675074 12.258498816468908 254.41126462600295 106.36867923112625
1.4473862125802837 12.189516469482571 237.45486788992034 112.10615944947251
1.452019368839451 12.119197859640554 221.48370847104923 118.16376688585912
1.456531294063696 12.04770091570062 206.46322827714064 124.56428613996724
1.460833777516079 11.975142878038376 192.43335973768185 131.338950891906
1.4648296519943873 11.901770893070706 179.44611384283039 138.52964385851715
1.46873349957829 11.826650957480812 167.13800363375753 146.1012925398468
1.4726639495194838 11.75000171242292 155.41327135214874 154.0597889335228
1.4766321769264603 11.672152650227085 144.3357568031081 162.43059715573006
1.4806478033862902 11.59341998859553 133.88541088944544 171.24030839852995
1.484709574910733 11.514106675708893 124.06650647861191 180.51868934157844
1.4887700960795511 11.434316691662396 114.8946679867873 190.29697999165572
1.4928093645920752 11.35422098711251 106.34266357404894 200.60961514248788
1.4967905912501658 11.273909933014274 98.39451976507405 211.49355648013633
1.5006661413257574 11.193460034896148 91.02961990257722 222.98885575293968
1.5043979802462248 11.11293666371019 84.21699678542302 235.13889720549093
1.5079508338603964 11.032379427785655 77.93119984867262 247.9909248061736
1.5112797650068794 10.951823713640824 72.14243270346226 261.59642269305147
1.5143503572075911 10.871294852704876 66.82471624040626 276.01079321348305
1.5171108439353076 10.790791204098245 61.93687391420187 291.29533043680516
1.5195355912835766 10.7103032298632 57.45352871275434 307.51565824147104
1.5215838346665767 10.629875918365435 53.34774729541854 324.7442634437416
1.5232140906565619 10.549449484322293 49.59058445655758 343.05999426908636
1.5244095539987144 10.469055270022892 46.14502542050521 362.5492618140783
1.5251197845341624 10.388644466574675 42.998968781403796 383.3064068469539
1.5253352623121375 10.308238439602714 40.123959626273574 405.43502466289766
