M[M_sun], R[km], Lambda[1], P_c[MeV/fm^3]
0.2416277750616976 15.618515526848569 2160338.09801669 3.5677787854173952
0.25223940910338616 15.314103945006824 1768092.9245076405 3.759389737533829
0.26314725387728755 15.045887383679945 1454252.9476796093 3.958324189065765
0.2743533704085381 14.808699867075843 1201495.5821969674 4.164917983803359
0.2858567648207565 14.59845414193431 996863.1686113686 4.379464378807582
0.29765743878126333 14.411661098840717 830441.5460004312 4.602116436081148
0.30975536820197336 14.245415311161656 694259.1364902938 4.83328576439382
0.32215197048592387 14.097205719120835 582480.912288798 5.073269571969466
0.33484769889067056 13.964881963152235 490259.0476041007 5.32237785594993
0.3478437788610225 13.846726315186295 413937.9604948796 5.58086121312872
0.361140462500079 13.741097561538233 350485.45336814725 5.849126177708334
0.37473733008317733 13.646582822914997 297556.80360598926 6.127534878148171
0.38863758338016496 13.562135776985496 253297.59169154876 6.416453878503408
0.4028378473091602 13.486729218134597 216136.4880263101 6.716265145995749
0.41734174718583467 13.419404069158096 184852.53610232056 7.0273666588739525
0.4321481549273983 13.359390238433202 158478.90945116666 7.350173044750064
0.44725660083752977 13.30596489265333 136123.18149519255 7.685116251049618
0.46266831207883524 13.258505014345777 117174.71489169984 8.032646249354826
0.4783820297696911 13.216467202035467 101058.33624554791 8.393231775587699
0.4943988759885077 13.179341151961458 87328.21281900117 8.767361108180044
0.5107151989318853 13.146693319393087 75580.63378915505 9.155542886604623
0.5273327464448747 13.11810727679297 65538.98003896073 9.558306972904557
0.5442501973062137 13.093206723218625 56917.50454777176 9.976205359152068
0.5614632867100572 13.07171327409315 49511.89353089383 10.409813124098497
0.5789764854685864 13.053225781811214 43138.86884244689 10.859729442642982
0.5967819889862741 13.037569467254682 37639.49361836165 11.326578652152147
0.6148803524486297 13.024458959889252 32887.019374838805 11.8110113801055
0.6332678831534507 13.013633362341741 28772.92599799315 12.313705738023662
0.6519431188876557 13.004921013232172 25210.488118252844 12.835341722166927
0.6709021490997136 12.998122150336249 22115.238232577183 13.376614160732794
0.6901422627306307 12.993040980041986 19426.141870284773 13.938353938460342
0.7096572587018739 12.989520809353559 17083.426581083353 14.521363470723786
0.7294459754911944 12.987411824141718 15042.764985037518 15.126479964216509
0.749501825502904 12.98655224130074 13260.291530143977 15.754577152182105
0.7698211929537079 12.986806607857343 11702.850462705574 16.40656714767299
0.7903977589863812 12.98805801805204 10338.637325584337 17.083402425200674
0.8112249088172891 12.990204439865124 9144.391367236294 17.78607794204025
0.8322975355043651 12.993100309568433 8095.352043584132 18.515633411408714
0.853608751528893 12.99667655388811 7175.222880746094 19.273155740748297
0.8751519614538054 13.000805155195312 6365.1980587514545 20.05978164942452
0.8969186432289333 13.005409417102298 5653.090417394969 20.87665113584952
0.9189000420205354 13.01041319933329 5024.845704749912 21.72505621733881
0.9410900987355492 13.015692340990855 4470.985860306836 22.606317812766843
0.9634762323610442 13.021202199477964 3982.131001504494 23.521805143619368
0.9860522330087537 13.026843959096711 3549.6763634161925 24.472953820267616
1.008806951527096 13.032578363197548 3167.0662101615 25.461269912708424
1.031729355017854 13.038282028503154 2828.2740677319193 26.488334337768826
1.054808119402702 13.043930870939247 2527.871688903327 27.555799993714775
1.0780327256692974 13.049460651821613 2261.6749273736878 28.665306974217668
1.1013904230639069 13.054782073001856 2025.0299184031453 29.818763463625228
1.1248696021222244 13.059850406872442 1814.8526956002652 31.018096380010107
1.148454353706169 13.064614433782891 1627.5945344919544 32.26533489919695
1.17213469967342 13.069011499721238 1460.997615903729 33.562617358463704
1.195894927482301 13.072991350637318 1312.6870316636835 34.91219870871894
1.2197206559537146 13.076506031383358 1180.2388105140783 36.31637689597114
1.2435959640871452 13.07949559509784 1062.174750607529 37.77736212227362
1.267506442015635 13.0819040710473 956.5703551931557 39.29811770654975
1.2914335712645981 13.083711417182112 862.2323326199147 40.88144565616212
1.3153647821577514 13.08485016403487 777.8707990602766 42.52978050733281
1.3392801913075398 13.085270767695475 702.2643676713643 44.24655154912631
1.3631623226046075 13.084950438558629 634.5307806778575 46.035000219820155
1.3869932582582425 13.083826297454902 573.8337203424815 47.89815291180927
1.410755442758257 13.081871709152018 519.3242835599522 49.84012248012618
1.4344283052857987 13.079043034683595 470.4039842137228 51.864178256844035
1.4579945427832368 13.07530064436928 426.3865083725959 53.97472005093859
1.4814343018426774 13.070602925047147 386.8207664140283 56.17603021404417
1.504725920960359 13.064911131687872 351.21458468030244 58.47210265685589
1.5278495983318374 13.058195948566272 319.1586790695457 60.86822368121845
1.5507860350901173 13.050421611949421 290.24530640835656 63.36937730891078
1.5735123122301904 13.041546956942316 264.19217061278135 65.98086877276886
1.5960075908812572 13.031542334138443 240.65727187733327 68.70835049309876
1.6182461345748125 13.020365285212163 219.3854670507353 71.55785026182116
1.6402204963462932 13.008014076994689 200.1746991633194 74.53580183732198
1.6618930484416397 12.99442606607596 182.79248586306383 77.64907817580675
1.6832467490426075 12.97958341322999 167.07541186420286 80.90502755044352
1.704259333082592 12.963456874417309 152.83063303630814 84.31151283805792
1.7249096936325448 12.946013733294073 139.91414574712041 87.87673048449193
1.7451702217575589 12.927230426216628 128.19965272663032 91.60916318259446
1.7650246632146216 12.907077805697435 117.58072086709834 95.51895465001073
1.7844447634996017 12.885531747367203 107.92439849777504 99.61529096500733
1.803411168593233 12.862569079270292 99.15655890022293 103.9096272402399
1.821897753877734 12.838161819644588 91.1757651172512 108.41338174741483
1.8398851085882195 12.812289353563779 83.92135841874061 113.1386747103193
1.8573488071463828 12.784927248993823 77.31388583555476 118.09869199707452
1.8742674903413963 12.756063588728432 71.28838916247824 123.30779663419493
1.8906140246712384 12.725668548801178 65.79449750871582 128.7809034245357
1.9063756075523222 12.693724328885692 60.789729793548965 134.53462501968596
1.9215207511765895 12.660219671454877 56.213349455659454 140.58675952386125
1.9360358944252263 12.625138755272848 52.03869703882467 146.9556453442089
1.9496547538245432 12.588729486572158 48.26910930728766 153.70254472109303
1.9600473839093455 12.551629107904708 45.240825772912906 161.20943625316903
1.9666647864373954 12.51167351628365 42.844932034007016 169.60796882786272
1.9697878111183906 12.467674932565108 40.928078027330656 178.95002289347346
1.9697887117561854 12.419218822069912 39.36767674029656 189.2908359779751
