M[M_sun], R[km], Lambda[1], P_c[MeV/fm^3]
0.2416277750616976 15.618515526848569 2160338.09801669 3.5677787854173952
0.25224051036243406 15.314089189340827 1768063.2209417534 3.7594089561409265
0.2631504086437617 15.045818435979358 1454187.9726856875 3.958363909114333
0.2743569386043914 14.808627419797714 1201509.5815140726 4.164980034090939
0.28586165457985163 14.598357646287 996817.4995091974 4.379549809352103
0.29766229726516213 14.411599346119287 830350.6577313532 4.602227560166085
0.3097624598183038 14.24532668512832 694220.7379794379 4.8334244754960425
0.32216008852523353 14.097120950562301 582416.6253455353 5.073437850399442
0.3348582490489356 13.964778479544773 490175.38739589456 5.322577773434769
0.3478549318603388 13.84664005019157 413866.66153692646 5.5810931089608955
0.3611529604061438 13.74093861782904 350414.65204330557 5.849393877867649
0.3747524349003891 13.646479529739832 297506.16387903504 6.127840744042946
0.3886541933578541 13.562041693553411 253249.91425617805 6.416800383978686
0.4028562929056971 13.486638167539637 216100.06728416108 6.716654883541047
0.41736173403771415 13.419341771108908 184818.6944717018 7.027802346228983
0.432170224718127 13.359313146912791 158438.4803404126 7.350657531937045
0.4472805255145585 13.305881613817629 136098.68286324822 7.685652527862593
0.46269402986259595 13.258435858903782 117143.12743208822 8.033237453339213
0.47841056454781816 13.216406117555572 101037.97475491592 8.393881200545978
0.4944279343423211 13.179285991394975 87303.58364452478 8.768072213242117
0.5107479081702531 13.14662997994701 75561.22660062464 9.156319305904292
0.527368029028786 13.11805071849188 65519.01982960327 9.559152525907088
0.5442861652825487 13.093171936021392 56900.43489976853 9.977124061680268
0.5615044858999374 13.071648311316855 49498.56402438883 10.410809200109595
0.5790180188051259 13.053187362248757 43126.07351678743 10.860807336811249
0.5968264057850584 13.0375297826889 37625.778590513706 11.327743043316898
0.6149268913799988 13.024407203932208 32875.74197563815 11.812267195648671
0.6333175998081104 13.013615570959129 28763.839775067667 12.31505816924537
0.6519945030363099 13.0049048349229 25201.926983070953 12.836806279501793
0.670955608434103 12.998135004834708 22108.349061854038 13.378187222703536
0.6901992037991146 12.993028896447482 19417.849088473355 13.940041618409962
0.7097180653391699 12.989506924233002 17076.523479892072 14.523172219969634
0.7295090385011811 12.987406154590072 15036.71769810971 15.128416593705431
0.7495680821611552 12.986535125910603 13254.82434889679 15.75664885568604
0.7698893333453615 12.986796208972468 11697.864241021201 16.40878152664173
0.7904687781939045 12.988069726182117 10265.53367492571 17.08576751539632
0.8112988598119181 12.990212875208215 9140.297661955432 17.788602242089816
0.8323740982075029 12.993118650300143 8092.036670199308 18.51832591342069
0.8536897863874042 12.99668311405467 7171.965311299717 19.276025963152208
0.8752350620177939 13.000830312680199 6362.554292002759 20.062839672205765
0.8970037587331077 13.005437973647517 5650.358962862042 20.879927857802848
0.9189888701033784 13.010433506839682 5022.456063578892 21.72854381043119
0.9411818787785415 13.015721583350176 4468.791272271052 22.6100283249559
0.9635710459436597 13.021225886977238 3980.213693758944 23.525751355494407
0.9861506936646118 13.026875474985633 3547.9549030826965 24.477149295560597
1.0089085765567067 13.032594299384943 3165.405063789376 25.465729052604715
1.0318275351147694 13.038327233023415 2826.7311992901946 26.493072439328166
1.0549148316219161 13.043960727900508 2526.5980501333524 27.560804559637265
1.078141470065521 13.049486988652108 2260.4558809741648 28.670622600032516
1.101503068880508 13.054806008230168 2023.9788511905545 29.824408466577356
1.1249842253758962 13.059876231894425 1813.857142089993 31.024090251617846
1.1485239301022259 13.064605765983321 1627.1312337864808 32.272842862848144
1.1698933233728437 13.066828889754069 1474.2368242833693 33.62014411083597
1.188175169086195 13.063877169416251 1351.4828784046201 35.096473994406104
1.2039359290447178 13.055377540237016 1249.7350898319244 36.70397262243934
1.2176251499448354 13.041371411013973 1162.8753951770116 38.44447562436924
1.2296144483436295 13.022080393720955 1086.801955746413 40.32026991880128
1.2402160261358717 12.997838742197274 1019.0542978523472 42.33379359097394
1.2496808254832472 12.968913852301666 957.346036755061 44.48779819515848
1.258215120313587 12.935600571589596 900.8150523318619 46.78546448295907
1.2659998726210262 12.898202786055785 848.0954538015964 49.23048169536406
1.273178386345979 12.856981474097456 798.4394304801823 51.826706916787494
1.27989413450815 12.812214327269155 751.5986896816485 54.578753990973006
1.286234221812316 12.764113673245145 707.0765437172381 57.49098264292077
1.2923161692807157 12.712956118449071 664.6286505300059 60.56886183665483
1.2982093543866264 12.65899802082551 623.9966740120819 63.81899797053478
1.3039636673347177 12.602433572222612 585.1591117745388 67.24875046821157
1.3096263626361653 12.543504462012212 548.1617495980068 70.86620641801633
1.3152344587097402 12.482391329659038 512.7479796637574 74.67934658670949
1.3208220576402072 12.419318882022562 478.96054527557516 78.69846140595284
1.3264046260386755 12.35441999677596 446.92566333654634 82.93285166752777
1.3320102406306833 12.28792335819554 416.4224763359689 87.3942311436094
1.3376259461135753 12.219941215038144 387.56462607256793 92.0950000747942
1.3432637936191079 12.150740489825365 360.3684719839464 97.04946652602075
1.3488783294085165 12.080355396671633 334.7380677931061 102.27474961584595
1.354406676490246 12.009042666617027 310.82065326244856 107.79478349764896
1.3597574687482643 11.937218448410352 288.64867650275835 113.6462416528502
1.3650755013309013 11.863682778299424 267.73743872667876 119.8000233812746
1.3705543648145724 11.78855351495376 247.81185571223853 126.24885519721884
1.3762450902864245 11.712390038785383 228.95920420726355 133.01060751289526
1.3821340838786695 11.635485318848694 211.19703259123347 140.1047916548489
1.3881982715545726 11.558096957723015 194.54070767746964 147.55253731295124
1.3944408251997449 11.480492744497385 179.03378192115528 155.37535504764904
1.4007971806021824 11.402804700261488 164.57025763258972 163.59789508306406
1.4072417511754103 11.325113716953398 151.19530970194054 172.24607074375916
1.4137251582602206 11.2475522615192 138.845985120326 181.3477587437702
1.4202062872347412 11.17017211798398 127.49052723762846 190.9329177924522
1.4266363338514565 11.092999207521885 117.05370637749216 201.03454093303208
1.4329700772650509 11.016080183620073 107.49367408132856 211.6877974503898
1.4391579364333735 10.939370467446917 98.75059977842986 222.93084667576872
1.445162954378432 10.862937970177844 90.75945833313718 234.80534045341076
1.4509312813401942 10.786746755948103 83.46441396914513 247.35544759697382
1.4564317513852052 10.710757272804797 76.82881670160359 260.63053034705734
1.4616107652079122 10.634959973594025 70.78514856672571 274.683417420945
1.4664415276403848 10.559345164003433 65.27816246759866 289.5715746299836
1.470867460760107 10.483790874939329 60.26915848271934 305.3577080804926
1.4748718185513288 10.408396456447617 55.71510220092505 322.11009122213716
1.4784068811584004 10.333004376419465 51.57765240175226 339.90349751216564
1.4814692727830654 10.257731098565714 47.81204946914371 358.8188364926617
1.483994060182226 10.182409064212834 44.38556375275537 378.94573882103356
1.4859625341697849 10.107027130251113 41.27063495533195 400.38134395088844
1.4873640864499917 10.031614985572874 38.441886543362315 423.2325633159036
1.4881722201762053 9.956156837029232 35.86892770661461 447.6164727824796
1.4883568664158369 9.880558758236113 33.523805756601476 473.6618823915555
