M[M_sun], R[km], Lambda[1], P_c[MeV/fm^3]
0.2416277750616976 15.618515526848569 2160338.09801669 3.5677787854173952
0.25224012203464685 15.31408598271645 1768033.7818621702 3.759402045806914
0.26314912149017433 15.0458343935237 1454145.8464900497 3.958349627151649
0.27435606730463935 14.80863858345365 1201367.4098894892 4.164957722892172
0.28585924593937617 14.598422005183172 977422.8252482117 4.379519091331375
0.29766017251831045 14.411626416041294 830428.7249683905 4.602187603503646
0.3097595702803466 14.245365782184226 694250.6311730064 4.833374599317614
0.3221591942308235 14.097068994445872 582448.1893531928 5.073377342604376
0.33485526006784533 13.964810283174385 490213.49029396544 5.322505889047851
0.3478506212648081 13.84662311683286 413870.9939444235 5.581009725945019
0.36114901954395884 13.741012777491576 350431.55897426035 5.849297620456118
0.3747471272877643 13.646514151547615 297525.32001857116 6.127730763087706
0.3886470354202455 13.562103812184736 253244.22769002782 6.416675789897984
0.40284954530223244 13.486675525358718 216113.77216818737 6.716514744087049
0.4173544086657743 13.419353252967081 184826.85633439192 7.027645684112211
0.4321621386224429 13.359323070335266 158441.79307383046 7.350483322297386
0.4472720363814552 13.30590826551069 136110.22972739348 7.6854596955760694
0.4626848967737383 13.258463207564207 117155.95437976043 8.03302487014828
0.47840058735001845 13.216414776108136 101042.21898809006 8.393647682000713
0.49441760023257286 13.179305416303148 87313.3264098879 8.767816515438332
0.51073596120861 13.146657658252076 75570.0719175702 9.15604012200363
0.5273552122148767 13.118064431897187 65528.90152765635 9.558848482422995
0.5442738932777731 13.093173676891723 56907.34463941717 9.976793714512706
0.561490429375352 13.07165214979276 49504.3787099679 10.410451030309803
0.5790030204896995 13.05320303227717 43130.711676761726 10.860419746056719
0.5968102271021007 13.037544807856527 37630.79181842531 11.32732434907503
0.6149098412065739 13.024422986780632 32880.48152325585 11.811815626006283
0.6332999281515239 13.01361223882218 28530.680572068286 12.314571857379097
0.6519766491107982 13.004906586384354 25205.495754329713 12.83627964784972
0.6709368146290933 12.998117383525155 22111.05252876378 13.377621573467788
0.6901788059827493 12.993031191847374 19420.961786550914 13.93943475318066
0.7096965009795039 12.989517344319177 17078.72088629373 14.522521818793795
0.729485283918225 12.98741353673415 15038.633360540698 15.127720207299086
0.7495444862426685 12.986542596656546 13257.121010817496 15.755903897092201
0.7698648949547837 12.986807955874239 11699.781358449218 16.40798526229255
0.7904432246476063 12.988068195270474 10335.937199886868 17.084917055534294
0.8112722060123763 12.99020170270849 9141.606586036422 17.787694530499333
0.8323464377798648 12.993119866511266 8093.236824803632 18.51735771641699
0.8536597255044719 12.99669248483024 7173.224348695941 19.274993857771015
0.8752048425601437 13.000816241226818 6363.511072386726 20.061740033531443
0.89697269955048 13.005433337290969 5651.321810492283 20.87874957425358
0.9189573608020072 13.010419998572104 5023.209193027263 21.727289696948958
0.9411489081198247 13.015712665623012 4469.487152343259 22.608694048881542
0.9635370127714833 13.021217209531612 3980.865493414822 23.524332320690828
0.9861159931228575 13.02685730526076 3548.5093591668883 24.475640624246942
1.008872197451114 13.032583196997512 3166.1505155575014 25.464125565823448
1.0317953447506092 13.03829670841007 2827.381666442189 26.49136863593407
1.0548761351082228 13.04394983142232 2527.17794029617 27.559004933814794
1.0781031459032113 13.049474880165603 2260.952310190772 28.668711114381974
1.101461987880203 13.054792039328007 2024.328818040804 29.82237853378583
1.1249427113073416 13.059863815270903 1814.2233446512942 31.021934862058266
1.1485299804368174 13.064626674553672 1627.022533511087 32.269410081050005
1.172212641438936 13.06902841437244 1460.5717700463317 33.56694339238775
1.1959741955129723 13.073005571875047 1312.2247947439814 34.91679067427609
1.219802210824122 13.076511243366781 1179.8236909805516 36.321225509156726
1.243679503845491 13.079505400339922 1061.7448156968137 37.7825086406024
1.267590811373522 13.08191516142888 956.2209274746199 39.30358036092384
1.2915200577627337 13.083716883175502 861.910984757852 40.88724390765366
1.3154521819633136 13.08485267051176 777.5714497134221 42.5359049605111
1.3393684298354436 13.085273243692255 701.9810510234697 44.253053102570206
1.363252513469941 13.084944075161596 634.3038585001851 46.0418698815311
1.3870844368071615 13.083820610453287 573.6220668770841 47.905447022193734
1.4108475658768351 13.08186604428484 519.1069241508261 49.84783266973888
1.4345214231578196 13.079030039114928 470.2089201157945 51.872367014873866
1.4580889326490891 13.075286881973298 426.2069652860026 53.98337989577198
1.4815299334104508 13.07058318894525 386.66638114419436 56.18523060798558
1.5048220821700282 13.06488711939841 351.07275922862266 58.48183732776203
1.5279465355455168 13.058166716278269 319.02456738144036 60.87852700737356
1.5508837011575978 13.050386030203804 290.13294823422507 63.380286165775
1.5736107001468111 13.041506494845589 264.09463658423175 65.99242273339891
1.5961067224248424 13.031494955985492 240.561056215052 68.72059204654535
1.618343311411501 13.020312568659799 219.30555941857006 71.57082505129655
1.64031916437391 13.007954712133992 200.09438719098785 74.54955892012796
1.6619916098141863 12.994362967629769 182.71582216019988 77.66367030723214
1.6833451479540886 12.979512715509562 167.00808318482356 80.92051149408488
1.704357482823469 12.963377282294644 152.7670385728223 84.327949705288
1.7250061351197197 12.945928090443935 139.85194211353416 87.89412751782083
1.7452675762356709 12.92713623462321 128.1438690626762 91.62764756292526
1.7651207433641163 12.90697722985812 117.52978939653346 95.53854028892137
1.7845405533068255 12.885423055230401 107.87931939568249 99.63612014758375
1.8035046695124115 12.862451440760955 99.11333038283436 103.93172196969577
1.8219904493539612 12.838031646741301 91.14087264763972 108.43683324338564
1.8399764122905014 12.812152222090612 83.88402454380419 113.16364749835319
1.8574383527409168 12.784782003478279 77.27974541535856 118.12523361849823
1.8743549263300527 12.755906827542681 71.2559782586764 123.33594260100163
1.8907017737460485 12.725499984240946 65.77287897857686 128.8108514969834
1.9064584938085327 12.693548185788508 60.76401360797263 134.56651051957635
1.9216021840290465 12.660033685419064 56.191537238276325 140.62072920578044
1.9361131025672276 12.624940367155421 52.01569037300438 146.99177363768692
1.9499598356011238 12.588231572990498 48.196063253903986 153.7008131278089
1.9631451314800035 12.549962705260283 44.70709699887128 160.76912117751206
1.9756272567884576 12.510054772700824 41.514298926411655 168.22076749209745
1.9873910558370014 12.468517585723275 38.58693125095495 176.08143764470452
1.9984188021646556 12.425342502646105 35.90860192039393 184.3788808079486
2.00767213218951 12.381874637315304 33.60299242731063 193.39044872539503
2.0129472345780357 12.338022274665054 31.851651203718564 203.64386000386872
2.0142668325287736 12.291287124571088 30.525101920183438 215.22568425936296
