M[M_sun], R[km], Lambda[1], P_c[MeV/fm^3]
0.2416277750616976 15.618515526848569 2160338.09801669 3.5677787854173952
0.25224167490195415 15.314035992452416 1768012.6336628092 3.759428298491424
0.26315164523513623 15.04578159336566 1454056.7950442329 3.9584038851954637
0.27436083682040363 14.808559765747601 1201281.4365924844 4.165042484793286
0.28586553980397245 14.598313593159938 996723.9589107117 4.3796357917738415
0.2976681058728715 14.411532649675062 830308.2459189092 4.602339402875584
0.3097691821656249 14.245267729276403 694159.0832321909 4.833564084571323
0.3221691454222723 14.097010895892383 582347.275189637 5.073607219347108
0.33486904619047697 13.964725805736194 490132.26534497185 5.3227789878045275
0.3478667619534433 13.84653664676631 413814.8452139088 5.581326510576193
0.36116697009084126 13.740827828859922 350358.98020001606 5.849663318036863
0.3747676291335768 13.64637343753231 297454.5224322076 6.128148599982518
0.38867124848380014 13.56193365022041 253203.20615974016 6.4171491461129655
0.40287466888917534 13.486573782710769 216056.279806496 6.717047161752968
0.41738150921913514 13.4192467633179 184781.4914679571 7.028240876511593
0.4321921036392997 13.359231869566763 158398.8958966596 7.351145183474419
0.4473046968912538 13.305799298038691 136057.07788096165 7.686192310571025
0.46272075151133824 13.258373721116959 117118.23910469767 8.033832525902138
0.47843887653124995 13.21631980508154 101010.31581118074 8.394534878978735
0.49445901872870673 13.179212610696139 87277.75614138004 8.76878798002525
0.5107800077786897 13.146581590446472 75540.38137474222 9.15710081972747
0.5274020199519419 13.117990788490273 65499.98103657597 9.560003632068266
0.5443236230154717 13.093130363281126 56884.2821848484 9.97804880318895
0.5615430308911924 13.07160254650488 49480.63770891028 10.41181182954558
0.5790597558671274 13.053149699861926 42726.2635734552 10.861892328995145
0.5968705148978699 13.037495778066038 37287.917379269806 11.328915108852241
0.614973449807641 13.024381808130197 32864.606704815495 11.81353129539981
0.63336713399395 13.01358995582339 28753.51993450586 12.316419529820951
0.6520468843013195 13.004891136149979 25192.427926173754 12.838280516081348
0.6710113747668522 12.998094706596756 22100.401681193955 13.379770690084024
0.6902566067894759 12.99301526952645 19410.58856254013 13.941740471639479
0.7097772123645013 12.989504290054802 17071.07076157328 14.524992954417243
0.729570192554141 12.987409316735135 15030.41513166294 15.130366066868609
0.7496336673862937 12.986545890047323 13249.424727449647 15.75873431055007
0.7699580015413422 12.986803172739503 11693.054555076527 16.41101061670761
0.7905385627148653 12.9880819937319 10330.076962958223 17.08814833150376
0.8113733521638627 12.990224556468817 9136.319480875893 17.79114334117182
0.8324518531901043 12.993123731805438 8088.334510622367 18.521036349337002
0.8537700768731639 12.996708762108875 7168.777180038096 19.278915319762085
0.8753176401629856 13.000846005415836 6359.536154889433 20.065918098852666
0.8970883047049322 13.00545428969663 5647.710986583877 20.88322646506985
0.9190792209118916 13.010439003191461 5020.0270876000395 21.73205471762749
0.9412740816307393 13.015740740325622 4466.679352875634 22.613763663209813
0.9636649732867648 13.021256567555712 3978.221045399557 23.529723993715333
0.9862488934861416 13.026892447760115 3546.132112586986 24.481372891311082
1.0090088623160196 13.032618544737803 3163.681468051076 25.470218106800605
1.0319327317775089 13.038352162680752 2825.301835526047 26.497842355078525
1.0550226150286717 13.0439854260512 2525.4506917534654 27.56584275395131
1.0782520953151205 13.049509979376815 2259.293188678811 28.67597397679168
1.1016164125556076 13.054828996914642 2022.8974707306202 29.830091470412384
1.1251004633145556 13.059898983444986 1812.6934982457947 31.03012450975592
1.1486921978340625 13.064656302102815 1625.8480250197852 32.27810479699491
1.1723777761556389 13.069051306518192 1459.4809786251187 33.576173378575675
1.1961435175442159 13.073029632353176 1311.2284046899492 34.92658811189197
1.2199741988076875 13.076541391795326 1178.9981205287793 36.33157058629617
1.2438549238093382 13.079525492142151 1060.9656351488939 37.79348940398765
1.2677706132510576 13.081931337212826 955.5067868249301 39.31523571795183
1.2917038222874986 13.08372848250239 861.2163727885415 40.89961539145801
1.315637715734621 13.084859230918854 776.9370111927632 42.548972520484256
1.339557045504911 13.085274104073022 701.4212488137704 44.26692536446444
1.363444246544607 13.084941677816365 633.7833854153056 46.056527655227114
1.3872786736826888 13.083809927818983 573.1447656782593 47.92101054958167
1.4110438656086266 13.081844680622417 518.6637186694657 49.864284088852
1.4347215448994892 13.0790057998306 469.8264770425184 51.88983969308697
1.4582909649188585 13.075250477895384 425.84850818923775 54.001857865477426
1.4817330161636355 13.070538922201798 386.345837083447 56.204834149426404
1.505027392570145 13.064830668492307 350.7704656075505 58.50260899942636
1.5281542207368948 13.058099064270085 318.75482924772615 60.90051221048116
1.5510914981208628 13.050310946116133 289.86964590520637 63.40356360468728
1.5738187634031815 13.041420076959803 263.8480106135146 66.0170768709138
1.5963177803145614 13.031394687550868 240.34868042339886 68.7467135701778
1.6185547159870834 13.020199929877439 219.1026248617808 71.598511381776
1.6405298538992317 13.00782943120235 199.91847222192308 74.57891476636397
1.6622017404438967 12.994222896859428 182.55529063593417 77.69480827246457
1.6835554829650154 12.979355887626474 166.85786790866987 80.95355273845743
1.7045672568379224 12.963206427224371 152.62209678726677 84.36302467067205
1.7252160079337482 12.94574314982542 139.73018508562112 87.93125165887838
1.7454752328778536 12.926935445694115 128.03412846511927 91.66709235438904
1.765324742194482 12.906759562158546 117.41398814613655 95.58033542070302
1.7847430528025479 12.885189835381524 107.7845492855217 99.68056934267572
1.803705128172071 12.862197187431049 99.02130129876184 103.97887219056004
1.8221895029748454 12.837762792807236 91.05715902006828 108.48687920767408
1.8401697584406602 12.811850432710202 83.8141303667887 113.21725169714138
1.8547328213830787 12.785008636286594 78.02315649753353 118.47601115093646
1.8635191177795316 12.754288694714369 73.89677268110123 124.55739330130635
1.8673735872233457 12.71784827015766 70.88048141757312 131.4909921596204
