M[M_sun], R[km], Lambda[1], P_c[MeV/fm^3]
0.2416277750616976 15.618515526848569 2160338.09801669 3.5677787854173952
0.25223966128959985 15.314098974124665 1768133.9325665354 3.7593936500074814
0.2631479160323831 15.04588376785399 1454151.987582668 3.9583322751461667
0.2743546671408478 14.80864814376004 1201390.66402027 4.164930615766802
0.28585758728683897 14.598456119384824 977459.8951725052 4.379481770388308
0.2976579771759333 14.411670578274954 830423.9511238739 4.602139058180006
0.3097566214639673 14.245406561426359 694249.7225918445 4.833314002446996
0.3221540561980388 14.09716591772095 582467.585075252 5.0733038290876
0.33485006131480266 13.964923708330396 490250.9814820099 5.322418553850994
0.3478459879063435 13.84670890149455 413932.45577581413 5.58090842085718
0.36114192779257565 13.741034510970335 350453.4117339827 5.849180674091405
0.37474023651991223 13.646561442464717 297544.5059866361 6.127597143866712
0.3886405970671492 13.56212638562875 249880.63369027418 6.416524417124047
0.4028415130437616 13.48670934529833 216136.7581486137 6.71634448523445
0.41734551850725343 13.419401254789193 184852.65552820766 7.027455351940436
0.4321522415225123 13.35936554651026 158467.10475068065 7.350271671779232
0.447261627303099 13.305960948272514 136125.6629347457 7.685225420625956
0.46267351205403195 13.258495589460516 117166.0317471675 8.032766600136426
0.4783881687800541 13.21644624442675 101054.83244327578 8.39336397803757
0.4944043331265403 13.179333635536112 87316.89817563676 8.76750586641223
0.5107221016405852 13.146681751538935 75579.67571614045 9.155700940353684
0.5273397004184265 13.118090275519583 65534.950076059846 9.558479099627698
0.5442577315382345 13.093198177187702 56914.107791902345 9.976392376273196
0.5614733228469311 13.071688249135669 49511.05903864318 10.410015891405292
0.5789849461089371 13.053218171041706 43136.0816314735 10.859948864847901
0.5967901319725766 13.037592855926798 37635.33975738457 11.32681568162952
0.6148893869443359 13.024436650924434 32885.53831272758 11.811267019817834
0.6332782833789307 13.013625323295464 28771.03865238677 12.31398104465105
0.6519542789738053 13.004914088251054 25209.05396767827 12.83563985289148
0.6709129311188472 12.998120399670425 22113.404095746926 13.376934378336372
0.6901535769314275 12.993045064505711 19424.55048417886 13.938697487293288
0.7096692010665984 12.98952046999311 17082.17613262988 14.521731663926584
0.7294587375312851 12.987411146571057 15041.249533515129 15.126874188127388
0.7495150238530945 12.986542310364975 13259.044417103754 15.754998871057966
0.7698350851881093 12.986807243497033 11701.865645295406 16.4070179087476
0.790412025740061 12.98806600298214 10337.910661025606 17.083883864105506
0.8112399714641833 12.990206340033453 9143.587948891205 17.78659178861571
0.8323128681626029 12.993102914615582 8094.641068773085 18.51618149593538
0.8536255879030868 12.996681015957414 7174.573878026257 19.27374000063052
0.8751684750688233 13.00081979807223 6364.7371107581985 20.060404136361623
0.8969360637127063 13.005423260364168 5652.524271704709 20.87731813910659
0.9189181186840492 13.010418597052425 5024.360059487951 21.725766143486386
0.9411087788255745 13.015703869258674 4470.451388933401 22.60707311404735
0.9634963333392197 13.021206460299998 3981.8129809446 23.522608421387673
0.9860719623977778 13.026849339226068 3549.2205244868433 24.47380783527124
1.0088281911888806 13.032572220447495 3166.887248629705 25.462177596140645
1.0317511883574784 13.038290918861469 2828.0305649445054 26.489298803158544
1.0548297234029134 13.043935373933403 2527.6979921391153 27.55681869731374
1.0780544115874788 13.04946057426189 2261.412508509866 28.666388992964166
1.1014124951070772 13.054785790057677 2024.7806803054718 29.819912525737678
1.124892233886878 13.059855070013372 1814.6459339478697 31.01931645270142
1.1484783279453867 13.064617160249682 1627.4310925652667 32.26663020585776
1.1721597138716773 13.06901932982219 1460.8367080858607 33.56399239719871
1.1959200909018837 13.0729949757333 1312.530654326316 34.91365827235222
1.2197465303051747 13.076508164090361 1180.1235779148417 36.31791803368088
1.2436216762472478 13.079496656426384 1062.0412947638677 37.77899794719428
1.2675334348600997 13.081912724818498 956.4618676072402 39.2998540130831
1.2914610046618378 13.083716660604459 862.0979169709499 40.883288629687414
1.31539253501975 13.084850709944561 777.7516845465593 42.531727161642664
1.3393074563633887 13.085273576807834 702.1167356007224 44.24861806149709
1.36319037642196 13.084947329759867 634.4846991050669 46.037183732284845
1.38702199750159 13.083827759005255 573.7508466234269 47.90047133116197
1.4107837178374776 13.081871098267637 519.228938392511 49.84257314628372
1.4344587384024166 13.079037171403336 470.3460261004691 51.866781030792666
1.4580243359098728 13.07529550428789 426.32961605951994 53.97747255479126
1.481464822757747 13.070598752588403 386.777418008285 56.17895452495695
1.50475667718871 13.064902840828058 351.1709184766769 58.475196781361966
1.527880694427986 13.058188161710488 319.11506687221373 60.871498545727114
1.550817327108823 13.05040835584859 290.2128433190567 63.372844633479886
1.5735434095792047 13.041534080596787 264.1547239715784 65.98454113479967
1.5960391385220936 13.031526179386281 240.6254742820426 68.71224139674428
1.6182773154999497 13.02034722828685 219.35334141108444 71.56197421367678
1.640251995132411 13.0079953118637 200.1517874420801 74.54017442903157
1.6619240061139977 12.99440696692 182.76983674821938 77.65371617428626
1.6832776577798643 12.979561396228938 167.05575997823274 80.90994899650183
1.7042917157471138 12.963429030724896 152.81146450140352 84.31673715427937
1.7249401024500846 12.945987034653363 139.89302141374077 87.8822599728551
1.745201903369376 12.927199985068835 128.18387370668776 91.61503826383004
1.7650536584692873 12.907046454200396 117.56312275186924 95.52517974567314
1.784475197169428 12.885496436022546 107.90499155557298 99.62191129600572
1.8034403420275895 12.86253239289655 99.14146221762844 103.91664979980213
1.821928270554992 12.838120199758668 91.16837258993306 108.42083552689692
1.839914230498679 12.812246197294783 83.90976384288628 113.14661351809976
1.857377359546671 12.78488079088193 77.3039998445909 118.10712790385591
1.874295109248497 12.756013588045054 71.27760908773801 123.31674244610201
1.8906438702830177 12.725613532936567 65.78662612029524 128.79042199263128
1.9064018875690507 12.693669435124994 60.780893205023524 134.54475935120158
1.9215473115711112 12.66015974304552 56.208785696805165 140.59755625938553
1.9360594549796795 12.625076203546952 52.03103728938777 146.9671281388215
1.9499150599323252 12.588399751576773 48.21253158884379 153.6745805564004
1.9630962498367024 12.550113669071454 44.7209565116771 160.7411164869974
1.975502436572127 12.510343789136243 41.54177139836184 168.20803647916904
1.9849564112542233 12.470502260991713 38.96724656169202 176.5069952229852
1.990444078598122 12.428463450229893 36.97966106700451 185.86524390631084
1.9922265480479089 12.382704083680649 35.422983307438294 196.34247772730336
