M[M_sun], R[km], Lambda[1], P_c[MeV/fm^3]
0.2416277750616976 15.618515526848569 2160338.09801669 3.5677787854173952
0.25224219716558677 15.314038268413823 1768006.1865934306 3.7594410769331335
0.2631539743340096 15.04569432280549 1454079.0238189304 3.9584302953810666
0.2743643398303559 14.808449410776094 1201239.7517772866 4.165083743074255
0.28586873038051697 14.598245940617703 996677.8346496392 4.379692596693405
0.29767189432546004 14.41145368240599 830228.533550347 4.602413293007354
0.30977556563665704 14.245139555407722 694061.7383370233 4.833656319383066
0.32217638357036066 14.096907655674395 582295.9761393198 5.073719116085634
0.3348752229593529 13.964623397614316 490085.98758148815 5.322911924545429
0.3478748898456933 13.846458308256068 413776.217337995 5.581480713334281
0.36117614221205024 13.740786271001278 350310.78288684424 5.849841331544742
0.3747777042324502 13.646306415254838 297436.5291691871 6.128351995070316
0.3886824897031608 13.561865135871638 253172.62232302513 6.417379568427213
0.4028867160433596 13.486489030365226 216027.15597212265 6.717306335887675
0.4173951419846924 13.419179859350367 184754.14799748655 7.028530610404237
0.43220699101836535 13.359156752538869 158376.03734755047 7.351467373085834
0.44732046592786784 13.305761496140237 136042.4096316782 7.686548944869474
0.46273742764606485 13.258309559138073 117095.19980857932 8.03422569217375
0.47845741277709525 13.216273574107849 100989.53051829491 8.394966768488128
0.49447945420906253 13.179188662928597 87261.69082349121 8.769260894051923
0.5108015352412922 13.146540710273745 75526.79853558257 9.15761717600585
0.5274231923103226 13.117976051412722 65486.067779353216 9.560565971660884
0.5443491791420969 13.093086842296627 56872.42206427525 9.978659797824843
0.5615689239395779 13.071589091967196 49017.06157435902 10.412474289458327
0.5790876836034933 13.053122171549582 43102.55067782855 10.862609211297276
0.5968990306389684 13.037479179298323 37604.61620421158 11.32968952648582
0.6150044997007864 13.024359961300828 32856.5100062698 11.814366526705719
0.6333998723261116 13.013559121262606 28746.92904522596 12.317319028772573
0.6520810495787597 13.004868022671225 25186.321056351528 12.839254601465573
0.6710474751055207 12.998077847289371 22094.42947957326 13.380816953488496
0.6902946177444899 12.993018830520185 19407.355829478125 13.942862980660363
0.7098170667258397 12.98950089239922 17066.780573694374 14.526196001576164
0.7296134306218619 12.987396243590991 15026.959064747769 15.131654184026752
0.7496773492956152 12.986529741593255 13245.948882596353 15.760112284348343
0.7700034125969404 12.986815919339879 11689.8650868221 16.412483505109684
0.7905880108687179 12.988076195020756 10327.33509474811 17.089721481526027
0.811422558582396 12.99023167031515 9133.696557009856 17.792822407889652
0.8325036091077277 12.993134041202522 8086.027877533367 18.522827316265854
0.8538225501731427 12.996718841668322 7166.798736889027 19.280824520718628
0.875373172383856 13.000859438675892 6357.609465557765 20.067952241410854
0.8971466560672265 13.005472293836043 5645.943294573216 20.88540142407178
0.9191371415923925 13.010468353837858 5018.503215944882 21.734374656088363
0.9413330840209417 13.015756082954704 4465.125201653857 22.61623191328892
0.9637285468675721 13.02126748799811 3976.835895598282 23.53234906052242
0.9863142011099562 13.026909538491934 3544.9092238351964 24.484163801234143
1.0090764318894416 13.032630914600647 3162.677237673898 25.473184443664852
1.0320015317903284 13.038361707147402 2824.3278570651473 26.500994299042507
1.0550927726485924 13.044006323575651 2524.6527810848856 27.569171989239827
1.0783245619293909 13.049527313002987 2258.521737689205 28.67951018064232
1.101692904974325 13.054846033519016 2022.4488242008306 29.833846833393103
1.1251765211254112 13.059922298327372 1812.0486335776727 31.034112004131423
1.148769990713322 13.064677028426269 1625.2549060396227 32.28233823294786
1.1724582600868976 13.069069532644887 1458.9107244679537 33.580667464854216
1.1962262930939975 13.07304565309553 1310.7417342393112 34.931358521267484
1.2200584867919588 13.076550543418085 1178.5533917080108 36.336607670547195
1.2439409671870445 13.079528830891604 1060.5634948675088 37.79883604301179
1.267857221532513 13.081941001067868 955.1055897858766 39.32091086077032
1.2917920793570934 13.083729069884292 860.9056761522314 40.90563926608636
1.315728615318739 13.084858817075746 776.6279079930805 42.55533536200038
1.3396504774627447 13.085275525791339 701.1409586210639 44.27368007711881
1.3635365314887171 13.084936586979405 633.5172121410234 46.063664892935975
1.3873735424011853 13.083807361518948 572.9068672328531 47.928588875214096
1.4111408719669347 13.081835485330656 518.4694282066538 49.87229480294355
1.434818342153314 13.078988407765344 469.62528020301136 51.89834775251699
1.4583890990996906 13.07523020577025 425.692030605084 54.010855493190874
1.481832725259605 13.070516880615914 386.1918101996749 56.214352390552364
1.5051269613807619 13.06480694503727 350.6343099967554 58.512723660311444
1.5282547357941991 13.058068115588672 318.62360334263803 60.91121786574033
1.5511932338068575 13.050272825848376 289.75167864196123 63.41489858894388
1.5739205804298206 13.041377204182028 263.741919788854 66.0290823239925
1.596419401388104 13.031346924540054 240.24989979235897 68.75943366428898
1.618658326426867 13.020145070042492 219.01883361334922 71.61199356927446
1.640632369165142 13.007768974702747 199.8380642297129 74.59321005015242
1.66230478222943 12.99415291590429 182.4926161184557 77.70997150133901
1.6836570344366877 12.979284513933205 166.78357842176473 80.96964292995139
1.7046694746571203 12.963124090940246 152.55342491588158 84.380105364236
1.725316112635732 12.945652163639203 139.66663620374126 87.94933038043986
1.7455757640603369 12.92683733617977 127.97806180800312 91.68630134567894
1.7654254755602645 12.906649038077115 117.37401368590746 95.60068914185088
1.784842386956128 12.885073091293682 107.73549818102568 99.70221574801585
1.8038025931292063 12.862074397719876 98.9807143094079 104.00183415433642
1.8222857275963624 12.837628351799458 91.00592848374616 108.51125158353602
1.8402668708119598 12.811716073340396 83.77374391138251 113.2426848893748
1.857722555322695 12.784317758862754 77.1774705198188 118.20929311125235
1.8746332898988478 12.755410661266964 71.15863333971896 123.4252608623303
1.890952791438112 12.724949761015834 65.68436263393176 128.9094266698325
1.9028320534433365 12.69454912830745 61.57452986978128 135.17175611429028
1.9076120470875984 12.660417176390688 58.97075216767229 142.65734710816693
