M[M_sun], R[km], Lambda[1], P_c[MeV/fm^3]
0.2416277750616976 15.618515526848569 2160338.09801669 3.5677787854173952
0.2522412393962482 15.314073346704253 1768021.8080666258 3.7594203925456364
0.2631519264334288 15.04575145798956 1454114.0719598331 3.9583875454336073
0.2743597271043632 14.808548933558468 1201361.8785295323 4.165016958735643
0.2858638682543022 14.598358345777287 996797.9483309641 4.37960064730592
0.2976657137877223 14.411566973383456 830325.9522056581 4.6022936881766405
0.3097666071905054 14.245267274630727 694172.0478050304 4.833507020505967
0.32216576359080895 14.09704043898225 582380.2566079008 5.073537991040233
0.3348650467185883 13.964708791542469 490134.73652911134 5.32269674275499
0.34786199320161276 13.846567918169674 413825.08973045566 5.581231109025902
0.3611618842603983 13.740911512369946 350387.3404669297 5.849553185727137
0.3747613420427598 13.646418084222926 297473.4655151435 6.128022765182463
0.3886643707606494 13.56197747907168 253215.81823802495 6.417006590813608
0.4028672491902552 13.486581816466343 213289.07477182377 6.716886819112033
0.41737361905610215 13.41926930938893 182498.67199905703 7.028061628134415
0.43218241865974305 13.359264806763917 158415.2983591741 7.350945856519218
0.4472941706684321 13.305855038159299 136062.47756648902 7.6859716746661855
0.46271008252214524 13.258384959701383 117128.00982068494 8.03358928986147
0.47842761061243205 13.21636774650457 101022.63624280013 8.394267687300275
0.4944459222667149 13.179249212260792 87285.89642662674 8.768495409157548
0.5107667039624497 13.146598712535033 75549.93895980447 9.156781374086284
0.5273879557698019 13.118012455091607 65507.75081741564 9.559655739785393
0.544308880877338 13.093150835168887 56890.589806735516 9.977670811573207
0.5615271407079998 13.071616921137341 49489.0152439763 10.411402000234865
0.5790430370481715 13.053161938287566 43116.84355273786 10.861448832776738
0.5968517815908255 13.037515673427551 37619.10855421018 11.328436020126764
0.6149545922813254 13.024389054821432 32868.790355565274 11.813014586262552
0.6333468476819389 13.013591065633152 28756.92788792046 12.315863063732118
0.6520254248586186 13.004894773092545 25196.26735639048 12.837677909938739
0.6709892171371239 12.998098571464482 22103.703140870428 13.379123433868575
0.6902330525925232 12.993021889329558 19413.070832913094 13.941046049267584
0.7097533188467511 12.989504281258526 17074.24166834764 14.524248710682627
0.7295442189054057 12.987412804220515 15032.871644741526 15.129569198527284
0.7496067091414551 12.986546634056616 13252.037723241783 15.757881856770705
0.7699299948139663 12.986807497830364 11695.087600907786 16.410099448839798
0.7905103123479106 12.988071350196831 10331.983539027702 17.0871751421125
0.811342893418066 12.990218348847067 9137.950067152418 17.79010463228214
0.8324199950956159 12.993128462552571 8037.967563218065 18.51992841982879
0.8537380505414465 12.996690230864262 7170.131252200092 19.27773425184946
0.8752857206948765 13.00083757646451 6360.692819311436 20.064659743577117
0.8970531916832387 13.005445605682995 5648.717730455358 20.88187810480971
0.9190422123755799 13.010434473043086 5021.188841592492 21.730619573790808
0.941236384101301 13.015732027973336 4467.4839086389065 22.612236776669658
0.9636278253572818 13.021236806819894 3978.9301898868466 23.52810010373359
0.9862084665328701 13.026882177526042 3546.851380836962 24.47964641474066
1.00896784149035 13.03260711679476 3164.3702054518176 25.46838311572264
1.0318900667506348 13.038340750100154 2825.948782848677 26.495892552747073
1.0549783316600823 13.043972098012398 2526.002053220626 27.5637832841412
1.078207467911212 13.049497664162406 2259.8078312968605 28.673786483026173
1.1015705130619937 13.054823074398628 2023.320447967869 29.827768412532137
1.1250529896643593 13.059887064407803 1813.0739748720482 31.027657864137435
1.1486428682283216 13.064648612771006 1626.183597079606 32.27548602178185
1.1723276766792246 13.06904577863136 1459.8178151120471 33.573393376172454
1.1960926060159192 13.073023571999578 1311.5210843372238 34.923637188482914
1.219921178270316 13.076532893437028 1179.1991050137885 36.3284547095989
1.2438017919099276 13.079515756299479 1061.214895642281 37.790182052116165
1.2677166997881797 13.081921817274493 955.7132079164365 39.31172517084166
1.2916481731566085 13.083722365047501 861.4475037598222 40.895889138041156
1.3155818488935591 13.084851132822674 777.1564453183131 42.54503660051255
1.3395012316701946 13.085270785773789 701.6015430477246 44.26274705652068
1.3633864167324348 13.08494152634447 633.9448838501424 46.052112739929214
1.3872202997787588 13.083811932638259 573.2712882223967 47.916322806030465
1.4109848537069392 13.081850740477197 518.798135609763 49.85932889765316
1.4346611136362921 13.079009598099313 469.94195140114294 51.88457687911254
1.4582290816438652 13.075262617217842 425.9508192547175 53.996292238753604
1.481671164294854 13.070555610097133 386.43188672340995 56.19894650895172
1.504965080111537 13.064847630581935 350.8680388431535 58.496352460585676
1.5280916991801377 13.058121351426783 318.8356964931285 60.89389012872249
1.5510285382412674 13.050331928378712 289.9582791273642 63.39655227094786
1.5737556550073049 13.041445802131806 263.92263167158205 66.00965084132261
1.5962546477144548 13.031423441404318 240.41550488633197 68.73884552556949
1.618491438008919 13.020231030518932 219.17380323318966 71.5901719744867
1.640466636194209 13.007867942142884 199.97412413432096 74.57007245302448
1.6621388934332504 12.994264511373112 182.60291067558853 77.6854291313711
1.6834922939292083 12.97940461297937 166.906112422331 80.9436002699405
1.7045040082849574 12.963257275000302 152.66272230223854 84.35245957870853
1.7251522575118867 12.94579919038743 139.7653804806941 87.92006928833766
1.7454120384585676 12.926996152275832 128.07000423465436 91.65521092153453
1.7652639714897633 12.90682462065944 117.45279247821446 95.5677459819671
1.7846822671467195 12.885259713239126 107.81353884574031 99.66718039821875
1.803645081824231 12.862273149516666 99.0521477730289 103.96466959326054
1.8221294657180394 12.837842078695937 91.08060704044343 108.4718042968145
1.8401122980578328 12.811948094208022 83.83169876402656 113.20078899650139
1.857571974862348 12.784563545162142 77.22697550644119 118.16476924456276
1.8744861027765858 12.75567478616714 71.21405179719842 123.3779149318353
1.89083019377334 12.72525082411701 65.7292023702869 128.8555115133313
1.9065719522839129 12.693285808981582 60.72402953580052 134.61682267267165
1.9189769827837777 12.66100289053858 56.74048204549262 141.04168298776685
1.9260196474995743 12.62564748614104 53.8675320309034 148.4494231096103
1.928389491389148 12.585333303818345 51.76205870355108 156.878470891094
