M[M_sun], R[km], Lambda[1], P_c[MeV/fm^3]
0.2416277750616976 15.618515526848569 2160338.09801669 3.5677787854173952
0.2522409169823485 15.314068482281241 1727230.6360752813 3.759412565683415
0.2631501638727652 15.045830623397574 1454215.6118376344 3.9583713691664104
0.27435758528934034 14.808598234672758 1201303.1038761272 4.164991688163323
0.2858614842112606 14.598388712088186 996859.0027769868 4.379565854689195
0.2976632536066048 14.411584223535034 830386.3068694094 4.60224843128031
0.30976361138814285 14.245309474026822 694210.5539102048 4.833450528055981
0.3221634990110295 14.097021514658138 582400.6525503196 5.073469456386304
0.3348605058423508 13.96481242458503 490178.5988876211 5.322615322003344
0.3478573893902891 13.846609892737645 413868.5035073974 5.581136663873648
0.36115642246732893 13.740954110793862 350410.14537158166 5.849444157777629
0.3747551592041129 13.646454897356898 297486.61135164404 6.127898192524727
0.3886575846545228 13.562008273196273 253244.30864951437 6.416865465729328
0.4028597212520985 13.486652713969482 216093.47026205997 6.716728085546396
0.4173655993662308 13.419306222204092 182517.0816588305 7.027884179004657
0.43217424233599655 13.359313633547357 158430.48955209224 7.350748530849559
0.4472848081334972 13.305888421725848 136091.88252811742 7.6857532545363805
0.4626992324442282 13.258419975923717 117141.20035473754 8.033348497155739
0.47841578666865864 13.216376630147574 101027.85430690912 8.394003180241764
0.49443387319899895 13.179275660364393 87299.24354994002 8.76820577861271
0.5107535815891385 13.146630609957118 75557.58508830816 9.156465139622265
0.5273734836409928 13.118038879434001 65514.881391652365 9.55931134546225
0.5442940216234944 13.093161027137583 56897.99397070542 9.977296621451279
0.5615119003254335 13.071642891304322 49496.25502762604 10.410996293576398
0.5790258480173841 13.05317925939605 43121.721237772275 10.861009798919099
0.5968350136686921 13.037521806270345 37297.535396885054 11.32796175300299
0.614935571735948 13.024403129223279 32873.25619167474 11.812503078543175
0.6333269007019038 13.013622843084923 28762.43903714417 12.315312200560294
0.6520042510466423 13.004901912640863 25200.034986549155 12.837081372868054
0.6709663653059375 12.998116618237988 22106.910946812477 13.378482697908264
0.6902090844292044 12.99303018979454 19416.15725651789 13.940358623889457
0.709728992181737 12.98951131872762 17075.25405454732 14.52351196765565
0.7295210805648188 12.98739551387893 15035.24002986907 15.12878036309377
0.7495805111564106 12.986535304279826 13160.989280830783 15.757037998194653
0.7699019872299591 12.986797471703786 11696.931404079945 16.409197470280084
0.7904819652492274 12.988070256998464 10264.707602743818 17.086211769769655
0.8113127574729422 12.990214604544084 9139.556723179741 17.78907640376378
0.8323885897930614 12.993127516205929 8091.257619110086 18.518831671673627
0.8537048545176383 12.996690811862413 7171.428577405865 19.27656510614556
0.8752492470020284 13.000837690721024 6322.799435902089 20.0634140936041
0.8970198770230843 13.005448175797454 5649.825365749114 20.880543362281248
0.9190037588386148 13.0104366048918 5021.854362427455 21.729198927518503
0.9411990883559002 13.015721994542211 4468.409122664629 22.610725318057483
0.9635893818958847 13.021228961420166 3979.877990089529 23.5264926256625
0.9861687489296809 13.026877529853063 3547.566721999092 24.47793739098506
1.0089268589652287 13.032594177568118 3165.1070032096436 25.46656667881783
1.0318471111049778 13.03832770906539 2826.4660621289327 26.49396247018162
1.0549346507047481 13.043961769825728 2526.3968610639117 27.56174464737371
1.0781631066562518 13.049486948716256 2260.2770511681124 28.67162112270412
1.101524301350986 13.05480780562483 2023.804093224007 29.825468865480623
1.1250050719164586 13.059881189100548 1813.4815656769172 31.025216188679693
1.1485950164133707 13.064647769345617 1626.542668008034 32.272893763328916
1.1722791567927873 13.06904011687096 1460.0674989440993 33.57064153010414
1.1960425900477012 13.073012810286432 1311.8312980514415 34.92071616008507
1.2198707729691434 13.07652358653875 1179.4565413020432 36.32537040570498
1.2437494035793788 13.079513855523281 1061.470043148478 37.78690822189933
1.2676629729501665 13.081921194650642 955.9250085005705 39.30825021417081
1.2915947750650776 13.083714820252126 861.6233739777673 40.8922006719213
1.3155265868409152 13.084854121941293 777.3413395448351 42.5411406029638
1.3394446480747901 13.085270504664928 701.7740192352657 44.25861114106366
1.363329229632988 13.084941348640042 634.0965642632295 46.047742628042045
1.3871624698629963 13.083820653038282 573.4192854909172 47.91168264786458
1.4109269608931774 13.08185747059057 518.9188345739004 49.85442401871112
1.4346022813371013 13.079017138524133 470.0592543901126 51.87936751615708
1.4581691984371963 13.075269712305822 426.0682385859188 53.990783152497336
1.481611791061574 13.070564533863662 386.5349986784912 56.19309601199972
1.5049038549151665 13.064863917305951 350.95169921980346 58.490159516209815
1.5280293627993382 13.058141872418707 318.9128315050157 60.88733537459165
1.5509672324975698 13.050352676748664 290.03215459737544 63.38961224144087
1.573694296928469 13.041470937500693 263.99033908459114 66.00230035392867
1.5961902412736564 13.031456512737858 240.4735136891427 68.73105754186459
1.6184285345478067 13.020266844915646 219.22566524699127 71.58191744852188
1.6404036741829782 13.007904152153536 200.02882817887757 74.56132016585957
1.6620729253869853 12.994308225145108 182.64478834213415 77.67614551034711
1.6834290310389142 12.979450865594963 166.94988305142036 80.93374919112965
1.7044417691890295 12.963307175988128 152.70321559774257 84.34200215080251
1.7250898211492838 12.945853422031457 139.79717014027213 87.90900090361093
1.7453509194716417 12.927055312403581 128.1079763711438 91.643450639503
1.7648248727440778 12.906989373407807 117.64704491714232 95.58417091191966
1.780306215058211 12.884488901775606 109.44143320443155 99.97974951578318
1.7914588720319191 12.857224075538628 103.02257824934279 104.90326074026223
1.798853901441956 12.824325093321022 97.8702577433955 110.37347917110375
1.8030266975195248 12.785678691316788 93.6227976786431 116.41171509966499
1.8044346756603509 12.741336816728053 90.0550291253338 123.03985212734628
