M[M_sun], R[km], Lambda[1], P_c[MeV/fm^3]
0.2416277750616976 15.618515526848569 2160338.09801669 3.5677787854173952
0.2522400822782739 15.314085348066914 1768040.9419994769 3.759401348498598
0.2631490152039247 15.045856576618208 1454230.043696533 3.9583481859887093
0.2743559000122336 14.808638071014526 1201398.0580559985 4.164955471518989
0.2858588491460014 14.598428292825801 996881.3507486904 4.379515991648759
0.2976599662563528 14.411648634999048 830355.101305578 4.602183571577071
0.3097594103792165 14.245378347309147 694257.029508182 4.83336956644431
0.32215730536023773 14.09715544284336 582440.142257379 5.073371236930797
0.3348547241702112 13.964809964339853 490200.125427024 5.32249863540347
0.34785083010434265 13.846662807747048 413902.108658135 5.581001312017754
0.3611467935457656 13.740999705453994 350442.04510000546 5.849287907424979
0.37474652134234676 13.646513638716652 297525.63647169294 6.127719665271121
0.38864705369591357 13.562095805367251 253261.22255335125 6.416663217534617
0.4028490419766093 13.486696162738363 216121.1692709668 6.716500603110584
0.41735370145166373 13.419357038808783 184833.84657398282 7.027629875911633
0.4321613025380762 13.359329682228859 158448.95797020293 7.350465743461839
0.4472712153477355 13.30591520632708 136110.32212531372 7.685440237623075
0.46268406769593884 13.25846648751214 117158.94859679721 8.033003419234237
0.47839973752339665 13.216430233479326 101048.32382298545 8.393624118612244
0.49441718398969675 13.179332833885216 87314.79174181019 8.76779071406317
0.510734816528274 13.146657291196146 75570.66023199196 9.156011950779488
0.5273538174137093 13.118065960982522 65527.55298014631 9.558817802762821
0.5442725260572163 13.093176639682898 56908.56724393341 9.976760380704699
0.5614890325933513 13.071669150422025 49504.799409061656 10.410414889089916
0.5790014435932302 13.053204327929832 43131.34424526155 10.860380636152206
0.5968081722228328 13.037576646571706 37630.94476298112 11.327282100716495
0.6149081702039766 13.024422909569893 32879.73476992394 11.811770060405829
0.6332981374826363 13.01361323719278 28530.92750930785 12.314522786172704
0.651974341161944 13.004925731440977 25205.30361487415 12.836226508251158
0.67093570474295 12.99811363725947 22111.5282608925 13.37756449687687
0.6901767932758383 12.993035269704967 19421.963362755818 13.939373517776737
0.7096945755634875 12.989518037858003 17079.518576953833 14.522456190492873
0.7294836884275012 12.98740143797985 15039.015470097913 15.127649938967803
0.7495416186344651 12.986549786577365 13257.207983968769 15.755828727706435
0.7698624189813549 12.986807896700203 11699.958031029824 16.40790491603538
0.79044063816031 12.988065638753927 10336.230022521155 17.084831240829672
0.8112696106198208 12.99021006762505 9142.00727628512 17.787602938976043
0.8323436672045811 12.99312048647065 8093.327031610407 18.517260021797558
0.853657351537494 12.996677063223549 7173.34003701983 19.274889714680306
0.8752021601245189 13.000823047638749 6363.699266284993 20.061629076217915
0.8969693848578274 13.005431147833837 5651.324910759595 20.87863068156054
0.9189534459091601 13.010426237561182 5023.402836007371 21.727163152910748
0.9411455735608953 13.015710621407617 4469.569242330428 22.608559416337698
0.9635338767027275 13.021210935400322 3980.92547322516 23.52418913589705
0.9861122851694811 13.02685713548223 3548.555485939626 24.47548839504204
1.0088684496604972 13.032578883507274 3166.1232805396075 25.463963769658733
1.0317917979961047 13.038302483115439 2827.414310758824 26.491196717753535
1.054872853424811 13.043949591480725 2527.1624256438176 27.558823347080633
1.0780991164291396 13.049474399368028 2260.991629501447 28.6685182409423
1.1014582595430802 13.054794918421491 2024.3703746700164 29.822173708995017
1.1249385124163886 13.059862756119621 1814.2757228831936 31.021717378661087
1.1485259961415815 13.064628857890789 1627.0995324555242 32.269179186117974
1.172207702903099 13.06902850888936 1460.5683346505573 33.56669828401413
1.1959700853367932 13.07301011181261 1312.264224514859 34.91653049800876
1.2197979001936026 13.076516085536996 1179.8679731671741 36.32095079104637
1.2436739941003012 13.079499097440586 1061.8102374702312 37.782217042882685
1.267586089472603 13.081917350974285 956.2426144711804 39.303270850570875
1.2915153516695574 13.083714609529615 861.9376420066258 40.88691538193494
1.31544717231669 13.084851109631726 777.6066178206222 42.535557951798424
1.3393640218881815 13.085275419289859 701.9938538800632 44.252684726773424
1.3632474525829674 13.084946063609737 634.3179965909121 46.04148064816607
1.387079047393029 13.083822523394426 573.6246218814854 47.90503373879839
1.4108420236058914 13.081866998480555 519.114379919776 49.847395810556954
1.4345170405396974 13.079029914066819 470.23032078828027 51.87190303900793
1.458083544445573 13.075285865355044 426.2218750723146 53.98288922716127
1.4815244770537814 13.070583163703335 386.673971323782 56.18470931058224
1.5048169136005158 13.064888151363924 351.08396537090846 58.48128575697501
1.5279410989371105 13.058169384447488 319.03810913383666 60.877943215169886
1.5508782391276135 13.050388090157405 290.14147557446864 63.379668062613426
1.5736049947283484 13.041508357462636 264.08929541004966 65.99176807687282
1.5961011338509041 13.031496480536175 240.56550807160778 68.71989842900551
1.6183393129833827 13.020313076031735 219.31010678512513 71.57008988635387
1.640313629836729 13.007958806871994 200.10476774383991 74.54877942792375
1.6619864332742058 12.99436424705331 182.72094378224045 77.66284349834936
1.683339543175693 12.979516639489821 167.01273772049592 80.91963415196139
1.7043529516771827 12.963380802070745 152.7695233955095 84.32701836697845
1.7250005862825764 12.945933185202342 139.8552658544022 87.89314177295574
1.745262178755506 12.927142727279357 128.14921536856966 91.62660020459182
1.7651153126632144 12.906983214434097 117.53458732637475 95.5374305288387
1.784534519681321 12.885431098246347 107.87976082815791 99.63493992287583
1.8034997903604626 12.862458067005647 99.11458696198406 103.93047003355174
1.8219849163114579 12.838039175961592 91.14328013828614 108.4355044266628
1.839971440274481 12.81216107424235 83.8883685032417 113.162236215626
1.8574335218780804 12.784789794824853 77.28369761757439 118.12372970004326
1.8743498686607656 12.75591598089286 71.25803716352317 123.33434777238628
1.8906972262724375 12.725509248010578 65.77274912057182 128.80915455149244
1.9064538545622642 12.693558461223967 60.76664136405269 134.56470378877177
1.9215980227916 12.660043410107285 56.19346115704656 140.61880437331237
1.9361094474490865 12.624951383446477 52.0183234236971 146.9897264858428
1.9499556114308363 12.588244158244404 48.199310458032045 153.6986341435239
1.9630738877980969 12.550084123270205 44.72316495180361 160.78076151707285
1.9731644400591766 12.511735838676133 41.91681331427194 168.65407173530684
1.9791297374819043 12.47107725931501 39.76243668650117 177.5515207497071
1.9812369950473 12.426463945354005 38.088563340341175 187.53265078721853
