M[M_sun], R[km], Lambda[1], P_c[MeV/fm^3]
0.2416277750616976 15.618515526848569 2160338.09801669 3.5677787854173952
0.2522391490872227 15.314116418569203 1768141.8200517371 3.7593836417670485
0.2631466450068553 15.045881304492278 1454258.8550639623 3.9583115907013844
0.2743531675686035 14.808673828003874 1201475.9907456662 4.16489830284827
0.28585508232945867 14.598492182602087 996847.7878741043 4.37943728228269
0.29765505091482886 14.411715993270585 830469.0938077815 4.602081190338886
0.30975346722013025 14.245435886825133 694285.938658669 4.833241768945026
0.32214913082342833 14.097229205696559 582487.5409085149 5.073216198790488
0.33484505973435064 13.964968730045458 490285.0153374921 5.322314448029406
0.3478410444589902 13.846731945084528 413961.21150112594 5.580787662921307
0.3611376617854721 13.741070759964472 350491.15772413154 5.849041271831632
0.37473357994847395 13.646592748082558 297575.19469183293 6.127437867734408
0.3886317900420995 13.562169106308891 253312.92580601075 6.416343979031888
0.40283250628558626 13.486755025273707 216160.5050710383 6.7161415353245335
0.4173352568886559 13.419439950168588 184873.33608695475 7.027228475145106
0.43214158802499836 13.359399959425819 156591.0782585381 7.3500193841600465
0.4472493491815797 13.305978143966334 136138.4508233922 7.684946165474507
0.46266054534626944 13.25855224375136 117185.52033945092 8.032458743820145
0.47837390267393 13.216482570941015 101074.32087859402 8.393025805571526
0.49438783265751984 13.179377422053959 87330.43081929459 8.767135576736978
0.5107049620626106 13.146718047094991 75589.69111420824 9.15529664129759
0.5273213630743959 13.118129368486528 65545.1493341025 9.55803880253038
0.5442385432172319 13.093223652096988 56922.708145594734 9.975913990245262
0.5614518597246951 13.071722808961823 49519.5463529945 10.409497217197206
0.5789632838889733 13.05323998301662 43144.29854671089 10.859387588299462
0.5967681469636433 13.037578877846178 37642.940628504824 11.326209366668833
0.6148653773924261 13.024461119393637 32890.71855182374 11.810613100976365
0.633252112702049 13.013648179406918 28776.298795932213 12.313276819059162
0.651926555214218 13.0049286710553 25213.533298951326 12.83487724476912
0.6708851052099829 12.998127054267396 22117.35268524718 13.37611527347903
0.6901240921272547 12.993056927049128 19429.003704819545 13.937818702802257
0.7096387283379135 12.989535321769976 17085.33052841629 14.520789840949334
0.7294262209030059 12.987403270484053 15044.964291224318 15.12586578058418
0.7494811075600318 12.986559211154718 13261.711467911326 15.753920133566583
0.7697995254815836 12.986805887198491 11704.394319202187 16.405864883685677
0.79037416915066 12.988061423653871 10339.899599602126 17.082652367744984
0.8112014411534616 12.990201472416203 9145.643269706477 17.785277396259325
0.8322715935788885 12.993110109093132 8096.456789666355 18.51477952597837
0.8535836325285174 12.99667721888251 7176.265048754883 19.272245497465427
0.875125777924406 13.000806865178255 6366.219859804554 20.058811852036225
0.8968913122302902 13.005406894438536 5653.939466937479 20.87561198651711
0.9188723423855059 13.010406499730843 5025.691115506994 21.723950198494904
0.9410609824227588 13.015686919859053 4471.711349320907 22.605141104192242
0.9634464720956267 13.021195622467449 3982.698577726214 23.520553692807663
0.9860218028909106 13.026835219553542 3550.2051182961754 24.47162332641167
1.0087749254747271 13.032556745947346 3167.492037855359 25.459855809482292
1.0316950258650466 13.03827648406716 2828.776902845233 26.486831774806554
1.0547744415490365 13.043924427059137 2528.333416211339 27.554211411865683
1.0779972959146047 13.049446663778207 2262.072477345561 28.66362127697726
1.1013548475032024 13.05476660296321 2025.3369433795228 29.81697332110506
1.124831849090719 13.059842586336865 1815.1169141184182 31.0161956119925
1.1484174733116637 13.06461269995862 1627.8997710442559 32.26331692639802
1.1720952121369137 13.069007134506991 1461.2271455648715 33.56047517365975
1.1958568684008788 13.072981985170612 1312.9328130094384 34.90992484558352
1.2196805246974487 13.076502051120869 1180.418302823005 36.31397595139625
1.2435559210170393 13.079492035664623 1062.3625359509097 37.77481366840109
1.2674648617403896 13.081905087927327 956.7465507976987 39.295412716840055
1.2913918316745325 13.08370543973874 862.4221344562845 40.87857449503146
1.3153221117457463 13.084846839626673 778.0236002877893 42.526747826742515
1.3392358710463823 13.085271146749571 702.3828191884916 44.24333214810394
1.3631176972058228 13.084948644820944 634.655046884485 46.03159855052363
1.3869477624398314 13.083832132430121 573.9320404263044 47.89454107916705
1.4102166722951939 13.081628216941716 520.407535345564 49.852114190901474
1.4307683680903167 13.076116151599617 476.4530118024248 51.97755298135504
1.4486819261290111 13.066063995558341 439.78299190593606 54.28473211114598
1.4643220603006617 13.051195512324668 408.52396202650925 56.77868417166728
1.4779844408781468 13.031412327628393 381.25865881457855 59.464692031029216
1.4899673439795997 13.006960324632255 357.15170703882063 62.34850543910942
1.5005089972106627 12.978032706019537 335.4441852635438 65.43650649294644
1.5097853939479207 12.94470852641036 315.7400456849834 68.73564143252582
1.5179877805507422 12.907337280703018 297.5599734250539 72.25366702858001
1.5252634530902704 12.866094416611773 280.71157969174897 75.99880551709806
1.5317296017611428 12.821192561130646 264.9553210395063 79.98034836016147
1.537495004020271 12.772822069983937 250.1745577819487 84.20821930740509
1.5426623533782355 12.721224561253747 236.20494830423755 88.6931952471234
1.5473097509714597 12.666553329726126 222.9457616433123 93.44696714255706
1.5515014813479189 12.60900724644658 210.35852204702152 98.48204883182716
1.5553057284341547 12.54881457164342 198.39345831671372 103.81386775269878
1.5587449203687938 12.486115232057426 187.0089832256692 109.45864585602214
1.5618601403446695 12.421103763529516 176.16460674076782 115.43408963251274
1.5646774581178933 12.353922567955319 165.8679598446661 121.75898192164843
1.5672118274864424 12.284721964630188 156.08381209599673 128.45490482009754
1.5694846838754866 12.213673601323368 146.80018739325183 135.54434419749285
1.5714910623698812 12.140923219782406 138.00902611984557 143.05389496151113
1.573221666057797 12.066601963172221 129.69623065675933 151.01449350096854
1.5746416430644083 11.990997274558142 121.86880364108428 159.46681709009405
1.5756396209922714 11.914372592512402 114.59652329032973 168.47088569929682
1.5763497666977793 11.835633996548777 107.66372799200225 177.98959094520453
1.5769361236935122 11.754988522168532 101.02689304645955 188.0281780104219
1.577418942562609 11.672738745221388 94.68579080197053 198.6224619453503
1.5778688936834484 11.58936943606315 88.64447605055545 209.81109958076712
1.5782203630585234 11.50498637012734 82.92230832939487 221.63670457417084
1.5784893362647459 11.419881829544407 77.52341135349462 234.14475352158604
1.5786553041171507 11.334187972005758 72.43644386206223 247.3855267839439
1.5786708112979178 11.248019052643587 67.66708063956362 261.41264255381304
