M[M_sun], R[km], Lambda[1], P_c[MeV/fm^3]
0.2416277750616976 15.618515526848569 2160338.09801669 3.5677787854173952
0.25224188141892173 15.31403422480036 1767899.3655822617 3.759437508771386
0.2631535339266545 15.045709201861246 1453976.1089238578 3.958422920774906
0.2743625336527022 14.808490192227415 1201262.2055463975 4.165072222364278
0.28586815283468286 14.598285145226312 996747.4891760356 4.379676734809276
0.2976708788983171 14.411492699841526 830222.3345476311 4.602392660311435
0.3097743017378271 14.245149315697038 694104.5589629519 4.833630564172433
0.32217412421129743 14.096919445908643 582303.7505160093 5.0736878705219715
0.33487393922833986 13.964682943102579 490109.790991508 5.322874803803361
0.34787244758850994 13.846434137538619 413784.97125242645 5.581437654287757
0.3611730337544042 13.740795677712537 350324.58965425706 5.849791623590015
0.37477521425383864 13.646317904339686 297419.19590000936 6.128295199553289
0.388679415454456 13.561893069893728 253180.74412221604 6.417315225800491
0.40288325850462886 13.486513035867858 216034.9152936446 6.717233964556914
0.41739121497464277 13.419190201151409 184761.16153514074 7.0284497055005115
0.4322012450779917 13.359196425366902 158378.2282173219 7.351377405158675
0.4473159717481691 13.305765253790288 136044.2344410019 7.686449358495005
0.46273239116878234 13.258334885695195 117093.55179761224 8.034115904471681
0.4784518576868301 13.216292238779516 100995.66760761241 8.394846167540923
0.4944732740555554 13.179188813736348 87265.98345918846 8.76912883721906
0.5107954769417637 13.14655139105598 75529.79716712369 9.15747298812523
0.5274170383657679 13.117988218120566 65491.59380870807 9.560408943129511
0.544341424070484 13.093087170754782 56874.74505365314 9.97848918254937
0.56156174306725 13.071592524172607 49474.08880565157 10.412289302666153
0.5790801299532073 13.053124971747334 43104.24105941653 10.862409027197833
0.5968921394618821 13.037475946127598 37607.27410238807 11.329473275770944
0.6149960676951163 13.024364494349415 32860.02946080612 11.814133293877221
0.6333907351699849 13.013564542459855 28748.671653161004 12.317067849284305
0.6520720176647417 13.00486858677514 25187.63754952532 12.838982593757484
0.6710370999180066 12.998101758518237 22095.608170692914 13.380524790086572
0.6902839516988538 12.993009289149 19408.167533538526 13.942549525654506
0.7098059480624382 12.989504803902406 17067.835136851507 14.525860056242145
0.7296014848735233 12.987398854292689 15027.904461189046 15.131294482800836
0.7496642804882777 12.986542723437426 13246.793285394924 15.759727490515095
0.7699907005789125 12.98680629349887 11690.715347297082 16.412072206182113
0.7905745834545923 12.988064276961545 10327.640693610978 17.08928218429393
0.811408741905377 12.990220214670318 9134.319824797927 17.79235353311166
0.8324889569543479 12.993140460284705 8086.570616346878 18.522327192977492
0.8538077639569742 12.996715473862983 7167.361826985909 19.28029138012703
0.8753577210804461 13.000848590928971 6358.163220200285 20.067384210344084
0.8971313206488268 13.005458535407703 5646.493207065439 20.884796517947795
0.9191206565406096 13.010464490691119 5018.939849448376 21.73372681503001
0.9413180812805555 13.015752390311743 4465.6266146309645 22.615542655363637
0.9637131131754304 13.02125718743436 3977.311984997814 23.531616010557606
0.9862969090109005 13.026909901745746 3545.217792978832 24.483384438478577
1.0090580691397306 13.032625632154353 3163.0532958236076 25.472356091690013
1.0319820389697432 13.03836257849972 2824.5840923018072 26.500114114879715
1.0550727970570772 13.044003255553838 2524.8404499945364 27.56824229515765
1.0783052226027088 13.049518467643034 2258.772245268837 28.678522688843373
1.101670220089285 13.054844355289925 2022.3950076718795 29.83279813945282
1.1251552848423085 13.059912242535123 1812.206417969936 31.032998485316174
1.1487482553696686 13.064669658450734 1625.4241483693436 32.281156032513074
1.1724371310810655 13.069064134346169 1459.1248949788242 33.5794124751066
1.1962028112180063 13.073043422966318 1310.8886956547365 34.93002636528336
1.2200343218955423 13.076548137104185 1178.6790842084354 36.33520104274523
1.2439171384831673 13.079531040743381 1060.6794039945194 37.797342968374494
1.2678339102956222 13.081931654868786 955.2273240555596 39.319326047386895
1.2917667882815995 13.083729946195456 860.9940138381633 40.90395706484805
1.3157022553144264 13.084855662750764 776.7040844390258 42.55355849994605
1.3396245866383545 13.08527079002563 701.23566613535 44.27179377960389
1.3635104669887466 13.08493861263274 633.5839218672987 46.061671770046175
1.3873469685325048 13.083807663047049 572.9695308545791 47.92647257193642
1.4111142126766045 13.08183649097249 518.5373806389633 49.87005774879686
1.4347912273123125 13.078992067718833 469.6893538520032 51.89597180672664
1.4583615238651995 13.07523330844557 425.7366053677188 54.00834282768678
1.4818047871790334 13.070521117404601 386.2353599488874 56.211694335218546
1.505099274968677 13.06481234792333 350.67603354959766 58.50989904423912
1.5282263160634717 13.05807882284897 318.66187269895073 60.908228204117975
1.5511650834294721 13.050282669292617 289.79178775437987 63.41173317580541
1.5738921290093442 13.041389093040594 263.7684297618358 66.02572966991647
1.5963902138247 13.03135977634747 240.27440857092054 68.75588143294581
1.6186282538533756 13.020159322004044 219.0405971594104 71.608228508228
1.6406036102157022 13.007785869966364 199.8626326015184 74.58921791533608
1.6622760643732188 12.994173043226752 182.51470081044508 77.7057369745655
1.6836293163123264 12.979304396591052 166.80639421321732 80.96514952874217
1.7046408123292902 12.963146719138907 152.57429360149473 84.37533534317689
1.7252878077401674 12.9456787016296 139.68322962038144 87.94428163781991
1.7455484715217302 12.926864645259736 127.99236545378525 91.68093694853104
1.7653975925099892 12.906681260488579 117.38881324464619 95.59500505186196
1.7848149388007708 12.88510677880656 107.75160326377674 99.69617064369916
1.803776162255971 12.8621069897366 98.99442735232256 103.9954216474369
1.8222554090668541 12.837668803434827 91.0243082609596 108.50444518283184
1.8385680292145794 12.8122299509056 84.30166130795939 113.39893368244786
1.8484535736813883 12.78369171261936 79.66805236090714 119.13413470308517
1.8527052312245325 12.749227101590348 76.4308413722 125.75742973410553
