M[M_sun], R[km], Lambda[1], P_c[MeV/fm^3], rho_c[fm^-3]
0.24162668629717493 15.618656898711224 2160425.4255784233 3.5677272577965504 0.1711233750220791
0.2536407333593813 15.27738858488809 1723344.9900042007 3.784776428899159 0.1738876348713549
0.2660344536300063 14.98138580735654 1383101.8011573905 4.011310720030433 0.17666556428728308
0.2788070582311919 14.723687561466274 1116592.9674988396 4.247587565355209 0.17945588289917364
0.29195908894345374 14.498566732900148 906053.9778362237 4.494231474679732 0.18226514468181523
0.30549087738845426 14.301430708382988 738842.348461817 4.75139458265159 0.18508898795401238
0.31940399392479896 14.128352345883492 605235.771035813 5.01976483068238 0.18793415587591666
0.3336991285772408 13.976134436286463 497802.9714950891 5.299558478460567 0.19079711915964628
0.34837572488860613 13.84224946697133 411131.3266068998 5.591513080493528 0.19368435567643694
0.36343546588030873 13.724192134833203 340762.3567287929 5.895784597299969 0.19659071961043462
0.3788853363801326 13.620222993714457 283411.56627457927 6.2132416951532115 0.1995239885437304
0.3947139856767571 13.528641276322531 236494.3962757219 6.5441500608375485 0.20248048841340166
0.4109342202986361 13.44807693228085 197953.40594111377 6.889195468351797 0.2054636500650299
0.42753773653773625 13.377238180326225 166159.12072106785 7.249090123342085 0.20847667952411056
0.44452915137156396 13.315077492442189 139869.39780557714 7.624104866806502 0.21151531425036657
0.4619023640818071 13.26075632024084 118036.5249653121 8.01516485109953 0.2145853488823437
0.47966417403224226 13.213309917065418 99860.75765779625 8.422985562179452 0.21768860574860144
0.49781654743539383 13.172125377130696 84692.17714603282 8.848023970912166 0.22082278738092248
0.5163502517274573 13.136529658153849 71982.18172705683 9.291121001477277 0.22399084619633708
0.5352636191105865 13.105953925764274 61314.46889262934 9.753175943455632 0.2271959199783235
0.5545653013260957 13.079901791127076 52335.13316906709 10.234997699904152 0.23043935856412032
0.5742417658445197 13.057923566753589 44760.60391326845 10.737080047244556 0.23371814930794566
0.5942917797088305 13.03959889519066 38352.61206586195 11.26062219659861 0.2370379120384669
0.6147233376502661 13.02456631453143 32924.99516251106 11.806582330257035 0.24040053577944515
0.6355195715718087 13.01250184625448 28315.89272345305 12.375938573091867 0.2438076519012373
0.6566857599781486 13.003073034860869 24195.450668089317 12.96941084769492 0.24725756368928847
0.6782099398502864 12.996017311690643 21044.173043356408 13.588263600971638 0.2507543634147579
0.7000932110484457 12.991085060020016 18187.319501971477 14.23372292732704 0.2543010230260969
0.7223208371204476 12.988003773015006 15742.472326175457 14.906977365545721 0.25789952494786406
0.7449020105100419 12.986651531779241 13645.576266264728 15.609096348212896 0.2615501699151857
0.7678154006303723 12.986760987326578 11845.98490799456 16.34126565295697 0.26525405564134424
0.7910530929225446 12.988124492319328 10298.182811092718 17.105138040889308 0.2690162585038869
0.8146212830795713 12.990637783893304 8964.386157060904 17.902167042882 0.27283920809750745
0.8384977563358709 12.994106415104243 7814.384711915084 18.733766482358785 0.27672442681135334
0.8626709973496693 12.998371307037557 6820.937920203933 19.601182289895704 0.28067152210798113
0.8871389945377017 13.003311004620604 5961.238748493111 20.506545187006658 0.2846872766129665
0.9118914576136187 13.008802857280404 5216.1359758342405 21.45164727893726 0.288774699656662
0.9369050399256672 13.01470045356855 4569.829663643119 22.438034273629025 0.29293421585992463
0.9621767153326642 13.020890420513988 4008.5552024643143 23.46760595222919 0.29716862599281374
0.9876952461986465 13.027282942161026 3520.2085236425096 24.5428418175594 0.30148451268690807
1.013435146381038 13.03374928045211 3095.3195721994675 25.66575664253223 0.30588405479213554
1.0393858076948217 13.040194951974804 2724.370457876672 26.838163241965542 0.3103674228516679
1.0655335590107675 13.046528061316517 2400.9534253116462 28.06322574736969 0.3149438773404957
1.091854936295447 13.05264510586972 2118.0134339033807 29.343083382758156 0.3196144534964575
1.1183468508360976 13.058488300603678 1870.6935639048743 30.680318514173745 0.324382659571718
1.1449714553003199 13.063959465257797 1653.7927857372501 32.078506553708785 0.32925774862713564
1.1717281272627078 13.068961439987364 1463.8106516073663 33.53939493884417 0.3342361693889798
1.1985766251692043 13.07342525314553 1296.936275411675 35.067613229179976 0.33933208857167246
1.2255164786168047 13.077295137277622 1150.387681043865 36.66529430807883 0.34454294749856723
1.2525066997096206 13.08046200097691 1021.389198565574 38.337272174497514 0.3498818751557178
1.2795419403489532 13.082911507698007 907.8047483990438 40.08598791577913 0.35534667113718454
1.3065806190943516 13.084512024753534 807.7853358864799 41.91682189314061 0.36095136745798717
1.3336115928921908 13.085230069460037 719.4496921807455 43.833099599633826 0.36669704650323803
1.3606157815325377 13.085036530628011 641.4313435286416 45.83978139371468 0.37259299179238925
1.387541547842658 13.083794401801665 572.5369857547332 47.94205656804151 0.3786483829866125
1.4143925319414345 13.081516249307409 511.4703240507167 50.14450974337996 0.38486801883522664
1.441120271468424 13.078098894688425 457.4578404289864 52.45267407785964 0.3912605203226144
1.4677029993069386 13.07349727962837 409.5374189357225 54.872798311234035 0.39783673671304814
1.494109195745025 13.06764625571518 367.028070061474 57.411061947335924 0.40460571164918097
1.5203177185641807 13.060521749952178 329.25913961010843 60.07408167131076 0.4115771974339708
1.5462992976983374 13.052052435300922 295.6794353120938 62.86895069628337 0.4187617133560256
1.5720142902452228 13.042192096869716 265.8143287173372 65.80328187577669 0.4261706087731991
1.5974359054423681 13.030886200393805 239.24248528780072 68.88525496396954 0.43381613151138776
1.6225228430036502 13.018089156890923 215.525585296953 72.12366845336177 0.4417115022036465
1.6472746852358844 13.00377170138958 194.36086893959916 75.52799647326681 0.44987099527030266
1.671624041774503 12.987866617760828 175.4675442906474 79.10839535444427 0.45830979369358843
1.6955628453068328 12.970344408910687 158.58796090619603 82.87457222309415 0.46703917979665177
1.7190356146162016 12.951149968157079 143.48302532114297 86.83946887752774 0.47608163345007776
1.7420337729516588 12.930253022375389 129.96621901932406 91.01491301491811 0.4854525456090096
1.7645186149274397 12.907639197754216 117.84008278915523 95.41443108001206 0.49517165162622795
1.7864450736371114 12.883229151586006 106.96878070462091 100.05222140094274 0.5052586257696959
1.807787648962606 12.857001921007205 97.21827028899618 104.94450370734263 0.5157380344728946
1.8285131751650001 12.828926967011286 88.453824448168 110.10757723073992 0.5266315913391202
1.848589332405632 12.798973336127498 80.57527922841479 115.5593407951151 0.5379637679166546
1.8679822519294305 12.76710270829287 73.48584214151333 121.31996874891743 0.5497638446983206
1.8866600210058417 12.733294728777187 67.10195992071951 127.41073621572723 0.5620611737894196
1.9045902855489982 12.69751525935539 61.34247832700245 133.85438826933847 0.5748862313340894
1.9217427785574315 12.659743071322247 56.15099299536319 140.6758494994604 0.5882727381493932
1.9380703559667454 12.619926143263532 51.46167450590679 147.9030881871393 0.6022601305245305
1.953567163687702 12.57807063197035 47.228160471117505 155.5649446624602 0.6168854739149834
1.96820256756484 12.5342099238756 43.39919145454858 163.6943635497463 0.6321941014968571
1.9819319600339167 12.488262295105196 39.932530926619656 172.32534919624572 0.6482285335246144
1.9947333910871399 12.440228608921402 36.794578376039425 181.49720345061843 0.665042151653248
2.00658044899911 12.390105672917393 33.95126908808103 191.25166252893916 0.6826886774586127
2.017448605921645 12.337895333700036 31.370390152750932 201.6346493840311 0.7012271989164579
2.027301557557908 12.283560338817535 29.031771344504083 212.696462947811 0.720721781222275
2.036128855024568 12.227146476077827 26.90586933462211 224.49151867894864 0.741239512845959
2.0438924543142636 12.168607515997964 24.97421942376169 237.08178422356684 0.7628604672589187
2.050572268430373 12.10795287695248 23.217665428741654 250.5330578318985 0.7856640991404484
2.056158081442678 12.045237239027625 21.621198118786953 264.9190169351185 0.8097408368216669
2.0606322141769526 11.980464228342607 20.1673753300246 280.3212272698958 0.8351902437394704
2.063966264475924 11.913636802903943 18.845439309042163 296.82870949822814 0.8621174744458786
2.066143700434131 11.844778495828884 17.640307919370073 314.54145384350005 0.8906423088380228
2.0671606792976167 11.773945976093689 16.544060340942 333.56933732659513 0.9208928061149294
