M[M_sun], R[km], Lambda[1], P_c[MeV/fm^3], rho_c[fm^-3]
0.24162668629717493 15.618656898711224 2160425.4255784233 3.5677272577965504 0.1711233750220791
0.2536450825894899 15.277258427016886 1723196.5619705997 3.78484114841831 0.17388844156893937
0.26604199477992174 14.981222622103962 1382916.3440094644 4.011446772975366 0.17666720840682965
0.27881786030121863 14.723459075465087 1116404.023378684 4.247799554196025 0.17945834165026672
0.29197430305726546 14.498354530467243 905863.278463031 4.49452496173749 0.18226841272831815
0.305511169657126 14.30115218903278 738641.8969569668 4.751779532670461 0.18509314614890435
0.3194289279936046 14.128048686882938 605037.8680573056 5.0202440788429765 0.18793912826055564
0.33372829750172045 13.975867609955737 497626.52257918636 5.3001446414446045 0.19080302084827527
0.3484115024475764 13.84193980114926 410949.02788880403 5.592207621331465 0.1936910755501056
0.36347586410502153 13.723893055665615 340610.592048336 5.896603119072134 0.19659840734013645
0.3789300289204614 13.619937296766413 283251.5800443352 6.2141941024018585 0.1995326733510651
0.3947650143119324 13.528375675649897 236367.4004013461 6.545235364249228 0.202490005058149
0.41099190604291747 13.447790128020838 197834.26693379815 6.890434618620667 0.20547420318870882
0.42760164315991656 13.37698425107481 166053.14617772665 7.25049474758881 0.20848829962052937
0.4445985112799574 13.314890870825398 139777.47594681784 7.625671082362922 0.21152778233326897
0.4619803012429307 13.260497248867008 117945.89857022146 8.016919975119016 0.21459892618559126
0.47974876510505643 13.213125568108957 99788.38278696939 8.424943279734661 0.21770332504777767
0.49790839374940243 13.171934832305032 84622.61528274021 8.850177063241778 0.22083837668933445
0.5164491497107128 13.136344170024206 71921.22464812154 9.293504310472235 0.22400762484024359
0.5353698041544181 13.105805173054243 61260.009070570944 9.7558056272111 0.22721392418528616
0.5546804519298004 13.07976753689228 52290.52509753541 10.23788902083175 0.2304586019962651
0.5743634748359377 13.05780584140162 44716.01807047117 10.740224189142884 0.23373833567286617
0.5944227485651937 13.039520417672408 38318.14225969344 11.264064562653845 0.23705942000387412
0.6148625277584887 13.02447614718917 32891.507800986845 11.81034325455916 0.2404234084741657
0.635669419852427 13.012409259545027 28283.790380244063 12.380039658247979 0.24383193473075934
0.6568421117519636 13.00301090077618 24363.054547987205 12.973833260989498 0.24728284039018436
0.6783767941520372 12.995966518386771 21020.828771354143 13.59307013777764 0.25078112492394544
0.7002678220284795 12.99105026769489 18166.03798440987 14.238939357222508 0.2543293224128678
0.7225049479456349 12.98799197492391 15724.99251260684 14.912631113757296 0.25792941844585515
0.7450947399681748 12.986639928401981 13628.65919197405 15.615161441800769 0.2615811706504713
0.7680180476926504 12.986752180090914 11831.953769983704 16.347824220407325 0.2652867484551388
0.7912665536767743 12.98813790938689 10286.322582113762 17.11222299530045 0.2690507102380214
0.8148439715605801 12.990662727930763 8952.516992126051 17.909813479325482 0.27287548989168536
0.8387285842445144 12.994135799812067 7804.535956452507 18.741940487077372 0.2767619821336916
0.862911317316243 12.998423390817441 6811.344930805125 19.609990136916686 0.28071103736274583
0.8873959024199123 13.003378448273667 5953.055921310276 20.516029264280682 0.28472883731011067
0.9121549927884102 13.008865483469496 5209.095504588174 21.461852876872406 0.288818397071612
0.9371779061389205 13.01476226818445 4563.3964498078285 22.448918881494823 0.29297942432424323
0.9624649650435971 13.020960498017116 4002.8158117764383 23.47930615294964 0.2972161439844078
0.9879870199798741 13.027366346308012 3515.074904483188 24.555412677407976 0.3015344507454191
1.0137318802500255 13.033816437534727 3090.4296560235643 25.679149504189876 0.30593574042459193
1.039699548473609 13.040272998525003 2720.1946325673734 26.85254182150866 0.3104217425360375
1.0658545643928532 13.046593116406367 2397.135445481798 28.078657343415202 0.3150009655244403
1.0921882671762857 13.052734936153312 2114.5741662356463 29.359513306592504 0.3196735911342365
1.1186890607750624 13.058557012243767 1867.4710460067383 30.697942903901275 0.3244448307485138
1.145322288614035 13.064014617562782 1651.2730601504281 32.09726789110784 0.3293222107345214
1.172088334227516 13.069026125944884 1461.3404188823606 33.559513270290886 0.33430397024024205
1.198946704878156 13.073479883936612 1294.7666314894432 35.08918349792459 0.3394034156026978
1.2258946123853252 13.07734429302485 1148.468387081741 36.688253923873205 0.34461701166504777
1.2528942431869987 13.0805099218047 1019.6608158061981 38.36182477395305 0.34995948917911557
1.2799380546189751 13.082944219098865 906.2561501852884 40.11219033840592 0.35542773267912803
1.3069912299426294 13.084545163284965 806.3701292620914 41.94472193961352 0.36103571352531333
1.334023081632444 13.085238947337196 718.1524331157234 43.86301004022552 0.3667859558012173
1.3610343261824596 13.085031538046712 640.2806968125244 45.87163956201751 0.37268563101820884
1.387972422290456 13.083782880054814 571.4683665877906 47.97599852417543 0.3787449927504715
1.4148182210306597 13.08145562174847 510.58407353446984 50.1809076268913 0.3849700097159551
1.4415501724236974 13.078013182545956 456.6247766658992 52.491470114070125 0.39136703970242975
1.4681455063037931 13.073412236330215 408.79339060892016 54.91416426418746 0.39794808641889434
1.4945554917864172 13.067537165111858 366.326630016214 57.455183493181146 0.4047222168390467
1.5207690199007209 13.060386004492202 328.6724815790234 60.1211596437909 0.41169920851269315
1.546753267645887 13.051891015438121 295.12336149451784 62.919202456491135 0.41888960808094644
1.5724710182546824 13.042003511205431 265.3163191651765 65.85694282001415 0.426304794570045
1.5978846548219199 13.030661529134278 238.7789179672899 68.94258018523219 0.43395704802313234
1.6229925081815606 13.017849825412815 215.09714405054277 72.18493457387673 0.44185962409783636
1.647735150615752 13.003487653146614 193.97604539658138 75.59350366767477 0.450026835333389
1.6720824835017973 12.98754668865251 175.13679700584356 79.17812758320147 0.4584724781854905
1.696020277172398 12.969984528627872 158.27039814897594 82.9492097361017 0.4672106965841634
1.7194996845843196 12.950764705255978 143.19522774758607 86.91939583314316 0.47626262867973634
1.7424802445601453 12.9298194842809 129.7039690045165 91.10016268423561 0.48564219474396575
1.7649632372955284 12.907153144171811 117.60490519104621 95.50582457919786 0.49537218937061833
1.7868745732890372 12.882677773206042 106.76152860233762 100.14983830507501 0.5054692788138239
1.8082257363057475 12.856439195039977 97.02968645071375 105.0488501378768 0.5159596143368526
1.8289382422641411 12.828302724912161 88.28341255190463 110.21941355884061 0.526865751210817
1.8490110276405427 12.798309469686455 80.41755411791524 115.67930901286957 0.538211580856686
1.8683837790055056 12.766361074155782 73.34052888275274 121.44849542584343 0.5500254779127695
1.8870591646179333 12.732529321905117 66.96722065727015 127.54841442458819 0.562337291846309
1.9049809973285334 12.696698280217564 61.21968809674265 134.00175785056132 0.5751771846452722
1.9221194380653508 12.658866624910246 56.041855636429574 140.83413458631256 0.5885811376913576
1.938429631376954 12.618962598596164 51.36109941356987 148.0732365091607 0.6025874192873456
1.9539226384577755 12.577103124109556 47.13712983424643 155.74743683087237 0.617231314841848
1.9685351422169857 12.533161966717296 43.3162486460157 163.89054930077253 0.6325609482921782
1.9822457373318758 12.487145460676619 39.85667134433813 172.53654429739944 0.6486184821873001
1.9950290137621434 12.439049296868626 36.72467597990073 181.7244174118599 0.6654560250341492
2.0068609509909843 12.388874090255381 33.88231160371267 191.49637058942696 0.6831285920737834
2.0177022144279455 12.336584346032748 31.309654991182494 201.89847888820276 0.7016954702617281
2.0275343797515846 12.282188601846414 28.974476468594847 212.98054582920298 0.7212187672271314
2.0363376730284197 12.22569902033375 26.855322974215323 224.79848385974412 0.7417701094687685
2.044076120962759 12.167088759078599 24.928764075572502 237.41312692427655 0.7634254370012877
2.0507294585976075 12.106362870522695 23.175217430866216 250.89159487448657 0.7862680470394982
2.056295971405188 12.043597524552979 21.58151420779844 265.3072254779296 0.810386729485366
2.060736531875646 11.978729892115156 20.13228162031067 280.7413568731123 0.8358797016156256
2.0640328590670847 11.911816475095382 18.81076995820495 297.2842834592296 0.8628555858929512
2.0661866875371953 11.842898024426171 17.609766548015518 315.03634355451976 0.8914345299280506
2.067171580240876 11.77198969350261 16.515267539983626 334.1068062300587 0.921741695315237
