M[M_sun], R[km], Lambda[1], P_c[MeV/fm^3], rho_c[fm^-3]
0.24162668629717493 15.618656898711224 2160425.4255784233 3.5677272577965504 0.1711233750220791
0.25364360712696976 15.27727021899157 1723135.4475453408 3.7848131668677385 0.17388809279241024
0.26603854229053303 14.981289212303157 1382960.0505994118 4.0113879499398495 0.17666649756516042
0.2788139874206599 14.723526159912486 1116466.6405410387 4.247707899362238 0.1794572785923157
0.29197199037266697 14.498329438835118 905852.5861248438 4.4943980697663575 0.1822669997567695
0.3055036276090233 14.301216530100172 738679.4094190958 4.751613094708497 0.1850913483012635
0.31941942305589516 14.1281509639825 605121.4170108186 5.0200368686106005 0.18793697837441894
0.3337167038340877 13.975949577598959 497707.2154773844 5.299891203337993 0.19080046914707155
0.3483964488025904 13.842065082835074 411028.81720418413 5.591907322316705 0.19368817007452838
0.3634591221429716 13.724018393927597 340679.92229502177 5.896249212134825 0.19659508337128656
0.3789115440696805 13.620032890367389 283319.368560829 6.21378230440364 0.19952891824915842
0.3947429034692327 13.528480545656105 236419.45051243223 6.544766102481392 0.20248589026638666
0.4109659914112979 13.447917899390141 197881.94845143575 6.889898833528293 0.2054696402180287
0.4275746806477594 13.377098547604392 166101.3861079479 7.249887411006202 0.2084832752806285
0.44456850593668956 13.314962245313755 139809.26535624664 7.624993872665042 0.21152239130862943
0.4619495238489729 13.26058538118688 117991.8498308083 8.016161079523828 0.21459305551462174
0.4797125715702602 13.21318066380445 99827.18720768532 8.424096779987645 0.21769696055306506
0.49786937856115365 13.172002235677802 84653.8621112405 8.849246080320562 0.22083163597520644
0.5164059068061989 13.136427195245178 71944.46134278482 9.292473777354314 0.22400036982284716
0.5353240560062773 13.105862903356181 61285.04849216771 9.754668556016997 0.22720613919400448
0.554629354278993 13.079826994862755 52305.56516511137 10.236639876499389 0.23045029481962942
0.5743106433461899 13.057855219130687 44734.85088491979 10.738864652345864 0.23372960702549753
0.5943666912977027 13.039538758446367 38331.32719201301 11.262576064218306 0.23705011983871255
0.6148023517419269 13.024515442249687 32906.21103921375 11.80871700038414 0.24041351813543643
0.6356036823334814 13.012440594549666 28296.850830679377 12.378266305558311 0.2438214345778958
0.656774150017138 13.003038753102647 24374.66033282172 12.971920953351672 0.2472719104239052
0.6783045647723391 12.995985459521286 21030.692703616372 13.590991718355436 0.2507695528414445
0.7001924730784256 12.991060082161896 18175.202762388704 14.236683680881978 0.2543170852586321
0.722425414019528 12.988001583236418 15732.578758151873 14.910186319227375 0.2579164918956032
0.7450116085646874 12.986640483305631 13636.343977737053 15.61253876079509 0.26156776524486336
0.7679306106344264 12.986761722771371 11837.352203218286 16.344988134076264 0.2652726112760934
0.7911738233130334 12.98814012297039 10290.824264687826 17.1091592686233 0.26903581237265534
0.8147481648765341 12.99066209530157 8957.80304348427 17.906506933463383 0.2728598005679991
0.838628570934725 12.994124186753874 7808.773459205127 18.73840578835522 0.27674574202196556
0.8628078206748185 12.998394665315107 6815.691131696243 19.606181322570187 0.2806939496148666
0.8872814687273524 13.003340914812075 5956.522614576086 20.51192800089253 0.2847108649380329
0.9120403222516085 13.008836887961008 5212.066937941097 21.45743957552549 0.28879950059327913
0.9370593826158767 13.014726162948595 4566.201608010208 22.444211927163263 0.2929598743156833
0.9623372887151393 13.020924364165678 4005.268149188264 23.474246472533807 0.2971955951188616
0.9878602133279479 13.027324182491359 3517.18304507643 24.549976453259344 0.30151285520757337
1.0136013047574466 13.033783006249342 3092.395070556259 25.673357780213557 0.30591338904634424
1.0395639926138853 13.040238481317976 2721.987991234699 26.846323787526124 0.31039825192333004
1.0657136403086205 13.046562388493046 2398.789522549064 28.07198389032894 0.3149762775196344
1.0920438406157613 13.05269479201883 2116.1849797365626 29.352408087573426 0.31964801670839454
1.1185407255472606 13.058528403980093 1868.9613102227574 30.690321083443216 0.3244179442829664
1.1451706136086448 13.063980677355868 1652.4511654609505 32.08915434666974 0.3292943333949841
1.1719323846487273 13.06900220114851 1462.5005573050692 33.55081282366086 0.3342746488380453
1.1987865026635143 13.073458202632892 1295.665368495924 35.07985508113534 0.33937256905731533
1.2257313902685985 13.077323544473847 1149.3386107593751 36.67832460894307 0.34458498123210807
1.2527260039574217 13.080492514170212 1020.4268451485622 38.351240807597286 0.34992612472314905
1.2797652818909955 13.082936351091169 906.9164741387377 40.10085847493437 0.355392675679278
1.3068092037532493 13.084521279267673 806.9354662479523 41.93265583178668 0.3609992358533455
1.3338445570071038 13.085237260944707 718.7695479802794 43.850074395836145 0.36674750437626946
1.3608526806822683 13.085032574961955 640.7770270695258 45.85786148743612 0.3726455662489361
1.3877831037236863 13.08378150665782 571.9446613440709 47.96131916442617 0.37870321055402467
1.4146380547505044 13.081490683116645 510.9464382584097 50.165166004286874 0.3849258999546548
1.4413615684385856 13.078041268110816 456.9932804052179 52.4746912198632 0.39132097114544595
1.4679541330648 13.07344616071066 409.10706897466184 54.89627379702907 0.3978999284988343
1.4943631890011242 13.06758612612175 366.62035933691254 57.43610113290657 0.40467182889446573
1.5205745499728391 13.060442574083739 328.92302444048414 60.10079851250814 0.4116464389591007
1.5465571502456268 13.051962430667995 295.3601686970821 62.897468525891696 0.41883429349964674
1.5722727047360936 13.04208498692187 265.53247347870985 65.83373425891901 0.42624675870600176
1.5976968732613606 13.030760813564873 238.9834504784946 68.91778664065457 0.4338961006820021
1.6227848441516486 13.01794445376141 215.29404035485678 72.1584363780579 0.44179555993114344
1.6475354587251527 13.003614420301357 194.14156804152083 75.56517096261396 0.4499594324994867
1.6718848761091922 12.987682103429202 175.2810313870236 79.14796731165514 0.4584021146170288
1.6958222179556552 12.970140116208647 158.40336152282842 82.91692760968981 0.46713651235168974
1.7192876651993845 12.950901405664844 143.3232323808452 86.88482565647017 0.47618434423842254
1.7422897329042621 12.930001935645217 129.8137507871242 91.06329006830876 0.48556016674585056
1.7647694250936472 12.907360938727424 117.70970406058105 95.46629428198094 0.4952854510718379
1.786697535448834 12.882930537929047 106.84890392857135 100.10761590533363 0.5053781647069489
1.808034416973103 12.856683666681018 97.10686006831995 105.00371667121772 0.5158637733257986
1.828748174047225 12.828555976660763 88.35529275321734 110.17113018694114 0.526764803523927
1.848828619230546 12.798599047371946 80.48611383094365 115.62741771478822 0.5381043913411603
1.8682163872345623 12.766697260253997 73.39789563675242 121.39290178208194 0.5499123096268687
1.8868880345392713 12.732857963126479 67.02658547393901 127.48893469496788 0.562218117513299
1.904812953278079 12.697050698306755 61.27349447670509 133.93801277191437 0.5750513320673519
1.9219568458512961 12.659245187290095 56.09068879821848 140.76566736425696 0.5884477375060245
1.9382720177853172 12.619366230364557 51.40481897671207 147.99963708754868 0.6024458471380754
1.953771553434608 12.577534265509568 47.17331016205878 155.66849727616787 0.6170817164837221
1.9683907812562693 12.533616592322248 43.35037502019501 163.8057911951861 0.6324026194465538
1.982109931791865 12.487626960459734 39.88978774926689 172.44518714117117 0.6484498011871094
1.9949022837904506 12.439561653856963 36.75459261608644 181.62612999925602 0.6652769931492591
2.006742389941474 12.389411963512599 33.913022806716086 191.39051458912695 0.6829382934724924
2.0175928780168744 12.337151966245562 31.336305343407343 201.7843501421028 0.7014929029952731
2.027433102319183 12.282777643791983 28.99842385810482 212.85765456565076 0.7210037763138976
2.036247707758273 12.226323462382888 26.876570599304195 224.66569247927856 0.7415405764063194
2.0439972109004616 12.167742648779493 24.94904423211124 237.26978843876282 0.7631810317161892
2.050661523893018 12.107050599032542 23.193801404929943 250.7366581519532 0.786007323258468
2.056238338073089 12.044317490541879 21.598075081475262 265.13932170668954 0.8101074367609985
2.0606914531777805 11.97948091208584 20.147075744302967 280.55969547393096 0.8355817346396479
2.064001123776392 11.912599055075539 18.826047846928354 297.0871933424036 0.8625362645888663
2.066168340954281 11.843711484784725 17.62294697943805 314.82224189215617 0.8910917952771625
2.0671645808617947 11.772833539046816 16.52695538478882 333.87428075759107 0.9213744399054781
