M[M_sun], R[km], Lambda[1], P_c[MeV/fm^3], rho_c[fm^-3]
0.24162668629717493 15.618656898711224 2160425.4255784233 3.5677272577965504 0.1711233750220791
0.25364480520594346 15.277239529635102 1723075.3475858544 3.7848355412337518 0.17388837167808885
0.26604093485145636 14.98124320688576 1382926.139061254 4.0114349854585125 0.176667065961645
0.2788172656842457 14.723485394967554 1116380.4260762231 4.247781187458145 0.1794581286237854
0.2919729072634074 14.498376979735413 905837.835299875 4.494499533719385 0.182268129581435
0.3055092730261536 14.30118402942784 738651.6008456748 4.751746179855333 0.18509278587484615
0.319427951155394 14.128038604297414 605066.1469009226 5.02020255543899 0.18793869743921274
0.33372747941392944 13.9758491409326 497647.03968237026 5.300093854117009 0.19080250950415778
0.3484084651113351 13.841967439757687 410966.6178371985 5.592147443167488 0.19369049330981467
0.363472773171416 13.723918174441861 340635.3165956291 5.8965321979239675 0.19659774123370435
0.37892615951133835 13.619958961364688 283272.8369033136 6.2141115798674855 0.19953192084491522
0.39476040999008133 13.528392641163462 236386.74768120353 6.545141325899336 0.20248918046886002
0.4109868732476642 13.44781088664447 197836.8936024857 6.890327248840277 0.20547328878260304
0.4275960398716222 13.377013639628602 166059.3750939269 7.25037303864811 0.2084872927536543
0.44459198276797335 13.314888582414515 139783.43384567066 7.625535370552443 0.21152670197999515
0.461975495829548 13.260521015206447 117963.21523279305 8.016767893025175 0.2145977497076423
0.47974152653345037 13.213111907904576 99791.98894403345 8.424773641223506 0.2177020496033241
0.49789977655372686 13.171947528097338 84624.65342938177 8.84999049371425 0.2208370258462401
0.5164405928444519 13.136368925481968 71929.52192669638 9.293297790290536 0.2240061709252894
0.5353605219369404 13.105814717038678 61264.6968140008 9.755577755850421 0.2272123640573316
0.5546684636042772 13.079797581704113 52295.61721734172 10.237640190110625 0.23045695651805664
0.5743532678421218 13.057813331647303 44720.101822362994 10.73995173343277 0.23373658642281103
0.5944135463075841 13.039506826111513 38322.24059202148 11.263766261553762 0.23705755621320265
0.6148491668113235 13.02448829176466 32894.79984389845 11.810017345509483 0.24042142640337644
0.6356561691341969 13.01242029387849 28285.671986185916 12.379684268712998 0.24382983044295176
0.6568287326357056 13.003002319782302 24365.397514528697 12.973450022996476 0.2472806499589704
0.6783617858122056 12.995971038443672 21023.230271361288 13.5926536085274 0.25077880580067496
0.7002521532449419 12.99106216643174 18167.200876477313 14.238487302913777 0.2543268699961804
0.7224883131896702 12.988004194100789 15725.344256738379 14.912141157044418 0.2579268278600236
0.7450782009148968 12.986646280050142 13630.537412999953 15.614635833670553 0.26157848409035933
0.76800055507904 12.9867557350681 11833.270422177282 16.34725584200258 0.2652839152313453
0.7912472532760939 12.988148498150892 10287.29598123906 17.111608993473375 0.2690477245550548
0.8148228919513145 12.990673245764267 8953.690682891713 17.909150811744173 0.27287234558139506
0.8387086338126923 12.994140930042091 7805.5527284991485 18.741232093155446 0.27675872743015323
0.8628900913782694 12.99841985736152 6812.070982239877 19.609226804397764 0.28070761277114203
0.8873732764969293 13.003363788983137 5953.66271325784 20.515207318508693 0.28472523541629313
0.9121280320537961 13.008880504261981 5209.563381868982 21.46096839152779 0.28881460996150177
0.9371539252084975 13.014747234456522 4563.817826419028 22.447975541378522 0.2929755062264566
0.9624396710371088 13.020966507877237 4003.3156532562753 23.478292117879725 0.29721202568668975
0.9879615034241009 13.027346273884318 3515.3754573552014 24.55432317341557 0.3015301226632691
1.0137055467982232 13.033803493047175 3090.746094638714 25.677988749072107 0.30593126084704364
1.0396727917976418 13.040266596102867 2720.6235003997144 26.851295622369882 0.31041703462009373
1.0658242047017452 13.046587404164045 2397.3978316128464 28.077319865600533 0.3149960176124239
1.092159216012141 13.052719509420443 2114.9482257633917 29.35808929095995 0.3196684655523094
1.1186600492031125 13.0585530462753 1867.791988583542 30.69641534610726 0.3244394421894122
1.1452920844484291 13.064005942656292 1651.51418685975 32.09564177745938 0.329316623568191
1.1720573205476488 13.069014297412819 1461.5510992600493 33.55776952315842 0.3342980936326178
1.1989142031530933 13.073474924493045 1294.9547402315811 35.08731388541542 0.3393972333009831
1.2258629049846943 13.077344885922642 1148.6352238153274 36.686263872262224 0.3446105920666041
1.2528597627995985 13.080505077961654 1019.8290134436048 38.359706205581425 0.34995281801041317
1.279903981688418 13.082939555075894 906.395540010133 40.109919168809355 0.355420706439145
1.306949194056544 13.084523525420222 806.515114149396 41.94230360222748 0.36102840252501883
1.3339877892028633 13.085242898677578 718.3302869530008 43.86041741601266 0.36677824918125024
1.3609974182573785 13.085032830013324 640.38893288014 45.86887808431055 0.3726776010161554
1.3879300105537633 13.083767733405194 571.594249117782 47.97305639553542 0.37873661850262225
1.4147793147714265 13.081465446326698 510.6343854507776 50.17775257911269 0.384961168924386
1.44151206388665 13.078020456945033 456.71509134698 52.48810715661899 0.3913578062812602
1.4681076598154625 13.073416673841818 408.86061345915584 54.91057850315693 0.39793843419508523
1.4945177489577386 13.067546808903423 366.3882988268849 57.45135882808588 0.40471211761599
1.5207302080008565 13.060397991603418 328.72049422382725 60.11707865952314 0.4116886319040049
1.5467144697862176 13.051903914272444 295.1745647466207 62.914846304494745 0.41887852132778614
1.5724307170387057 13.042018620491195 265.36238265910185 65.8522910874754 0.4262931623401933
1.5978449710950016 13.030679004417454 238.81760912224922 68.93761075094059 0.4339448321898518
1.6229423197083774 13.017857140624384 215.15253797563895 72.17962344924342 0.441846783496304
1.6476945482245393 13.003513323105514 194.02088851979948 75.58782482120625 0.4500133254922195
1.672041741517937 12.987576534738093 175.15506012067718 79.17208240712907 0.45845837485887486
1.695980374974026 12.970014992863074 158.30125825451145 82.94273923619762 0.46719582739422905
1.719460652689411 12.950798004798104 143.22171714893818 86.91246669302181 0.4762469375865633
1.742442479580209 12.929853346198012 129.72501099824083 91.09277201999305 0.48562575323643176
1.7649243198687097 12.907194585101244 117.63148092432546 95.49790117608136 0.49535480365497075
1.7868504124318667 12.882754712147344 106.78223617545636 100.14137526339985 0.5054510159370476
1.80818758652471 12.85648872110059 97.04436086507815 105.03980356229319 0.5159404039146385
1.8289016744846691 12.828354594055916 88.29675295799622 110.20973556955194 0.5268455171096347
1.8489743304014337 12.79836759391401 80.42966716133371 115.66890778849302 0.5381900955163107
1.8683496245311007 12.766422595215985 73.35624620155252 121.43735203860484 0.5500027940599476
1.8870245830432493 12.732595804258759 66.97775567692474 127.53650867379488 0.5623134634287191
1.904947210424188 12.696769815442718 61.230871799077924 133.98898043618274 0.575151958061937
1.922086299839162 12.658942905392612 56.05032965048531 140.82041056449268 0.5885543980778707
1.9384028269059994 12.619042733409934 51.353926902511986 148.05848367213957 0.6025590414713361
1.9538918889736259 12.577192197537034 47.14387138856249 155.73161349393627 0.6172013280344157
1.9685039120418308 12.53325146163525 43.32223692608384 163.87355955046226 0.632529211297404
1.9822183406787988 12.487241660245765 39.86412582220727 172.51823165443287 0.6485846698943253
1.9950029871105617 12.439150676277656 36.72976319878492 181.70471547642993 0.6654201376855807
2.0068374115137417 12.388982582446582 33.89014162260263 191.4751513848765 0.683090446055277
2.0176801944179505 12.336698046375353 31.315427230569387 201.87560123912678 0.7016548646913122
2.02751396303572 12.282304547006516 28.980070202056197 212.95591154462915 0.721175671020092
2.036320276225672 12.225823845126587 26.858973374026498 224.7718648576808 0.7417240978899936
2.044059564849872 12.167220461058147 24.930953855558517 237.38439349115282 0.7633764438583136
2.050715205676295 12.106500435165449 23.17724850076072 250.86053935838933 0.7862157924346571
2.0562845076396337 12.043741246490933 21.585916462141988 265.27361751166654 0.8103309058490973
2.0607256392828353 11.978884403415698 20.134342884877547 280.70494051042704 0.8358199703049877
2.0640272196476284 11.911975126631548 18.814588295621036 297.2447739097788 0.8627915733434759
2.0661835485828948 11.843060184458684 17.612140335144993 314.9934234550962 0.8913658232906074
2.0671708250459 11.77215773425644 16.51792772831481 334.0601924186156 0.9216680725235477
