M[M_sun], R[km], Lambda[1], P_c[MeV/fm^3], rho_c[fm^-3]
0.24162668629717493 15.618656898711224 2160425.4255784233 3.5677272577965504 0.1711233750220791
0.2536397037983764 15.277405098197512 1723281.5663516535 3.7847572215177228 0.17388739546061122
0.26603253192797294 14.98141954175172 1383228.0075487704 4.011270343035425 0.1766650763551273
0.2788044128307049 14.72370296052648 1116676.3114889162 4.247524653506372 0.17945515321653327
0.29195446629586946 14.49864071601682 906127.5327662999 4.494144377925413 0.1822641748392418
0.30548485410628934 14.301515371913776 738840.5989428855 4.751280344585987 0.18508775396487726
0.3193974386499035 14.128398930294596 605247.7523855008 5.019622610646536 0.18793268028815288
0.3336898560057849 13.976271901259153 497872.5511198315 5.299384533295839 0.1907953678204647
0.34836684638583737 13.842308596422315 411178.3215234699 5.591306976773596 0.1936823615662494
0.3634241780977013 13.724265467673453 340821.0475913535 5.895541705939644 0.19658843832337713
0.3788711265405994 13.620297312424565 283454.2473108474 6.212959078104345 0.19952141141653784
0.3946985812977921 13.528728768654782 236535.710356353 6.543828012396305 0.20247766448363808
0.4109170740109611 13.448143733047988 197993.2943136913 6.888827773149319 0.2054605186183883
0.4275195417400213 13.377290895275367 164190.05769476003 7.24867333252686 0.20847323152051053
0.44450873490083226 13.315154216616524 139906.06948533136 7.623640133143315 0.21151161467158483
0.4618819652300332 13.260791867601709 118063.25968504185 8.014644070858509 0.21458132022614668
0.4796402576373756 13.213372512516782 99886.95955480948 8.42240467627173 0.21768423829863898
0.49779030825972315 13.172172660982184 84710.71415960217 8.847385121808829 0.22081816184045508
0.516321705032056 13.13657078701428 71999.11694616689 9.290413853696368 0.22398586783187396
0.5352320163474192 13.105999208506137 61330.82604728657 9.75239570461199 0.22719057805019544
0.554530821387596 13.079953406069366 52353.121664953454 10.23413928650779 0.2304336418657687
0.5742031819934459 13.05798055370988 44771.631602716974 10.736147189425854 0.23371216007178638
0.5942552405495963 13.0396489959082 38364.979771301434 11.259600869984078 0.23703153077129707
0.6146835647612896 13.02458430102119 32935.041219152765 11.805466504252639 0.24039374969562385
0.6354756167381086 13.012500325253551 28321.51629385 12.374721840994281 0.24380044754020236
0.656639051016204 13.003078475749236 24397.27132182607 12.968098796737824 0.24725006454404952
0.6781623252732777 12.99603593530179 21051.039120436 13.586837606094708 0.25074642385733004
0.7000413050659404 12.991083401233396 18192.923371155768 14.232175346356865 0.25429262732380403
0.7222667389817221 12.98802145934159 15747.674697622597 14.90530006544236 0.2578906564299545
0.7448435835779693 12.986653507985828 13650.234358860946 15.607297033609438 0.26154097301246537
0.7677551846120756 12.986753078448796 11850.073603580595 16.339319966342195 0.26524435688156467
0.7909911135090194 12.988118054029774 10302.029027634493 17.103036222205105 0.26900603807136114
0.814553727662827 12.990641215141924 8968.424334922864 17.899898685195918 0.27282844490248237
0.8384287505587621 12.994095443207451 7817.260728494656 18.731341644790056 0.27671328593736966
0.8625990901015056 12.998357395936827 6823.662845452927 19.598569456204213 0.28065979997103535
0.8870637425490359 13.003291884978912 5963.521167542373 20.50373178823076 0.2846749478633061
0.9118149921831515 13.00878039550892 5218.370326901492 21.448619885698278 0.2887617372355064
0.9368250338158587 13.014672231095808 4571.82253707179 22.434805493719526 0.2929208053463691
0.9620926261946476 13.020874833899299 4010.254126123062 23.464135284171476 0.2971545305785954
0.9876065388535584 13.027261936558032 3521.644176161521 24.53911293403714 0.30146969960285824
1.0133445251937814 13.03372613024084 3096.767264417998 25.661783973246855 0.30586872349627037
1.0392927789658837 13.040175024884826 2725.5939343223545 26.833898242350067 0.3103513104511172
1.0654380890887765 13.04651100503857 2401.8818719112523 28.058648464168623 0.3149269439795797
1.0917566306609672 13.052631938665067 2119.003073184424 29.338210033176924 0.319596912430217
1.1182444455732814 13.058468239321233 1871.5330853389305 30.675090943433645 0.3243642189771942
1.144866359447659 13.063924270822133 1654.7545684786774 32.072908873369514 0.3292384156313107
1.1716212982675143 13.068940265208768 1464.4650168589828 33.533427795766016 0.33421605950156824
1.1984681052541273 13.07340840535276 1297.578900123219 35.06121553234298 0.33931093312265204
1.2254041245651082 13.07728026761569 1150.9429398434788 36.658484615604074 0.34452098048476143
1.2523909300880813 13.080451420063921 1021.9753332904309 38.3299721788388 0.34985875036978914
1.2794260836858322 13.082904128240008 908.2933864497955 40.07821663841055 0.3553226294012222
1.3064607294442938 13.084503496832564 808.1648825721289 41.90854722795446 0.36092635189152317
1.3334892297062892 13.085233491827122 719.8569400849392 43.82422882595139 0.36667067797622754
1.3604908683168642 13.085046185504641 641.810211537554 45.83033309002674 0.37256551740871974
1.3874161508387508 13.08379951126673 572.8305275631253 47.93199040042012 0.37861973142413247
1.414264283703194 13.081529836704004 511.74357604346983 50.13371539842259 0.3848377718910947
1.44099078472437 13.07811382431031 457.7024135849265 52.44116868256741 0.39122893081784105
1.4675717225201461 13.073523754557645 409.76775803013214 54.860530950782575 0.3978037151849495
1.4939763115966445 13.067679103805144 367.2052936868573 57.397977584197854 0.40457116172164626
1.5201848033093335 13.060560490349555 329.45199258746646 60.06012077628569 0.41154101524998543
1.5461643849207787 13.052101060039234 295.841729483544 62.854048842724495 0.41872378695396834
1.571878851811017 13.0422489277354 265.99699732253873 65.78736929292054 0.4261308174008934
1.597295209409057 13.030943568651805 239.3663146873328 68.86825604477109 0.43377434487116007
1.622386366198961 13.01816398591973 215.63310513140016 72.10550121167716 0.4416675796208567
1.6471373299541827 13.003855455210338 194.4678803946721 75.5085719445835 0.44982478477689364
1.6714916097196368 12.987961005041104 175.57042869970272 79.08767287275553 0.45826136464832545
1.695427131362351 12.970449368260466 158.67917971933107 82.8524410164771 0.46698832234830234
1.7188901548721756 12.951237936556184 143.56975558782202 86.8157696855142 0.4760279664403914
1.7419066790178312 12.930399697253616 130.04177976895315 90.98963596992914 0.48539631348805495
1.7643861088262103 12.907783764919616 117.91204940155795 95.38733285512868 0.4951121920700942
1.786314638618213 12.883382998681896 107.0356641013667 100.02327840639195 0.5051961680431115
1.8076571852705285 12.857165137334302 97.27565290732167 104.91356595992734 0.5156723381014102
1.8283868107872767 12.829111097793838 88.50603714582432 110.07435034738492 0.5265619093005381
1.8484642018943886 12.799166145657063 80.6262468541986 115.5237726866078 0.5378902964780892
1.8678605026490203 12.767315905467091 73.52937651044424 121.28186394176248 0.5496862772748071
1.8865405637183712 12.733522359868484 67.13913216432236 127.36988093092079 0.5619791775588031
1.9044750848026442 12.69775699119317 61.37991686005055 133.8106986306546 0.5747999744218151
1.9216305815504198 12.660002996667508 56.186240106564085 140.62892477867715 0.5881813109487379
1.9379649033219175 12.620199939602943 51.49418086553444 147.85264759501368 0.6021631055360009
1.9534649999038074 12.578363248620459 47.257494801026354 155.51084578433844 0.6167829511255686
1.968103709575641 12.534525130801157 43.42420041383604 163.6361089189435 0.6320850235437513
1.9818393866822681 12.488593221851831 39.95652179915034 172.2627442109936 0.6481129402644338
1.9946458090332797 12.44057832054284 36.817471624701675 181.42985143615348 0.6649194690250115
2.0064983289464973 12.390473003410218 33.96969331057736 191.17912646481992 0.6825582785062063
2.017379195428456 12.338302676978287 31.391201823554464 201.55644720830725 0.7010883977685567
2.0272323485238024 12.283970225594429 29.048304949429937 212.61225932040534 0.7205744720138718
2.03606698580023 12.227576406160924 26.92086813695827 224.40053493033733 0.7410822452704685
2.043837770902452 12.169058220691921 24.988383551962727 236.9835774311815 0.7626930156564721
2.0505247003422804 12.10842845698941 23.231833041079312 250.42670611676738 0.7854848141883622
2.0561199214261476 12.045728800887789 21.632676685846853 264.80394158746753 0.8095493447574389
2.060601786288822 11.980981299150953 20.17949080872919 280.19655397539685 0.834985386032421
2.063943883335615 11.914175070151272 18.854974874193516 296.69369635694835 0.8618987289652001
2.0661302929050964 11.845337337348614 17.64892280181651 314.3947935217221 0.8904075345087215
2.067156166746968 11.774526430321947 16.551959083237858 333.41006335877296 0.920641245605469
