M[M_sun], R[km], Lambda[1], P_c[MeV/fm^3], rho_c[fm^-3]
0.24162668629717493 15.618656898711224 2160425.4255784233 3.5677272577965504 0.1711233750220791
0.2536454968647288 15.277254283169226 1723177.4278107414 3.7848538552621838 0.17388859995361827
0.2660431959975147 14.98120958078062 1382909.0637590105 4.011473485606171 0.17666753121320822
0.27882095805930934 14.723381456721933 1116343.4799773823 4.247841176661642 0.17945882440814417
0.2919778200186172 14.498276487773756 905727.0747536692 4.494582586571938 0.18226905439422375
0.30551499409220784 14.301109497565673 738517.423121484 4.751855116883876 0.18509396260266386
0.3194342956230615 14.127999573433044 605007.3238438606 5.020338179552023 0.18794010459173155
0.33373513465328536 13.975805865880096 497585.9435682811 5.300259736507793 0.19080417966458432
0.3484183344820573 13.841881324094333 410916.0304559197 5.592343998466149 0.1936923950363997
0.36348491595538035 13.72381123620948 340551.302216224 5.896763842705585 0.19659991689051456
0.3789395618100003 13.619865922342628 283221.4256807601 6.214381118024171 0.19953437870835913
0.39477532417227545 13.528326665422181 236345.0669947187 6.54544847804206 0.20249187377820949
0.41100325746131633 13.44773783280165 197810.95846339068 6.890677945419434 0.20547627546183525
0.4276135492775414 13.376948925798532 166023.86329853933 7.250770571347007 0.20849058143979335
0.44461248337450004 13.314830855231374 139759.6890141419 7.625978641056424 0.21153023069822882
0.4619954262057599 13.260457618242022 117929.54006171713 8.017264634208338 0.21460159240229207
0.4797650255573056 13.213073641414825 99775.19853186507 8.425327727542632 0.21770621555784544
0.49792614670414964 13.171895350503545 84610.73131666517 8.850599882516283 0.22084143808153864
0.5164691940857656 13.136304594650971 71908.30944569875 9.29397234493244 0.22401091983202198
0.5353905701421767 13.105770962204842 61249.93666401063 9.75632205111961 0.22721745989672293
0.5547016201402092 13.079750715855745 52280.72348668665 10.238451675485187 0.23046231480610152
0.5743877726262191 13.057779540667799 44709.22913796581 10.740841657703601 0.23374230001229382
0.5944484575984542 13.039495523960058 38309.63185378204 11.264740606771927 0.2370636439397578
0.6148888881004091 13.024464497795016 32886.00188302939 11.81108186909493 0.24042790048289434
0.6356977979887823 13.012424260634427 28277.72132869423 12.380845087338367 0.24383670373616875
0.6568724353492285 13.002987061486978 24357.814511140237 12.979419634583763 0.24729940533653127
0.67483193318387 12.994113196113853 21494.8360217761 13.638913140327482 0.4315835454915996
0.6837211036590847 12.97568815136789 20039.348617445532 14.480278458574217 0.6617230231775333
0.6869354099220286 12.945429945318828 19253.798182423012 15.502035147574437 0.8926873473858153
