M[M_sun], R[km], Lambda[1], P_c[MeV/fm^3], rho_c[fm^-3]
0.24162668629717493 15.618656898711224 2160425.4255784233 3.5677272577965504 0.1711233750220791
0.25364477985688405 15.277249137351529 1723147.990897437 3.7848347319668183 0.17388836159096693
0.2660408982040336 14.981258731312222 1383051.0312896206 4.011433284206112 0.17666704540301376
0.2788176781807812 14.723454106672925 1116400.837411303 4.247778536652124 0.17945809787843026
0.29197268434859314 14.498365810035677 905800.998419965 4.494495863788014 0.18226808871589745
0.3055090166828202 14.30117362928468 738585.1301115056 4.751741366173002 0.18509273387788994
0.3194266322133576 14.128086928286537 605058.3669364306 5.0201965625337905 0.18793863526050825
0.3337270941883261 13.975852543534675 497637.8586794521 5.30008652419531 0.19080243570400882
0.3484080496875981 13.841968154183043 410969.88083025295 5.592138757914901 0.19369040927760664
0.36347278565316327 13.723890970065467 340632.8113356898 5.896521962194396 0.1965976450975661
0.37892627683291163 13.61994641049131 283282.33591222315 6.214099669775091 0.19953181223921326
0.3947592097070796 13.528416416961266 236384.75194029108 6.545127753796443 0.20248906145985265
0.4109861655717932 13.447814976404501 197836.2575613037 6.890311752692625 0.20547315681090694
0.42759525479482574 13.377010805294544 166062.80728205308 7.250355473019181 0.20848714743770785
0.44459107068468456 13.314891025733434 139776.87032561871 7.625515783979502 0.21152654605828042
0.4619745568932449 13.260522693780917 117964.18706236598 8.01674594383803 0.21459757991293457
0.47974087931943254 13.213116245364425 98723.75839791862 8.424749158238836 0.21770186552550594
0.4978990159694092 13.17195098228072 84627.03117852958 8.849963567194497 0.22083683088673228
0.5164394007313434 13.136361725137391 71927.98614734839 9.29326798443668 0.22400596109022006
0.5353593491401027 13.10584288235164 60676.39678081476 9.755544868538873 0.22721213889338848
0.5546669893826915 13.079779714349764 52294.5074729219 10.237604006934482 0.23045671555221864
0.5743517714108051 13.057819841511439 44721.16122595084 10.73991241160277 0.23373633396448204
0.5944104259142776 13.039499184565472 38319.638043603896 11.26372320966354 0.23705728722421346
0.6148489161713392 13.024479760609129 32894.323600000964 11.809970309187735 0.24042114034406184
0.6356551039411436 13.012414576519157 28054.66147933541 12.379632977717119 0.2438295267451592
0.6568267783360074 13.00300266204566 24365.697222983978 12.973394712865593 0.24728033382894324
0.6783594832332084 12.995971408056601 21023.015114596634 13.592593493756123 0.2507784710977342
0.7002505409372031 12.991056791669134 18168.610128236203 14.238422061123053 0.2543265160562816
0.722484552558336 12.987999773715973 15725.209542227225 14.912070445139573 0.2579264539795276
0.7450757562744659 12.986644687734476 13630.7774120684 15.614559976517697 0.26157809635891194
0.7679982352965 12.986748967899477 11833.5550959571 16.347173812213068 0.2652835063334184
0.7912446991261874 12.988143833365122 10285.915090816448 17.111520379286876 0.26904729365427316
0.814821091676824 12.99067245105533 8954.141601983143 17.909055174098224 0.27287189178760346
0.8387046483955451 12.994139639619409 7805.617230465642 18.741129856267488 0.2767582577045518
0.8628883734480103 12.99841755374987 6812.4354555611 19.60911663876878 0.2807071185274426
0.8873714993199314 13.003365724809468 5953.689964843084 20.51508869382241 0.2847247155845248
0.9121287240445358 13.008865738361099 5209.730104504553 21.46084074114937 0.2888140633995473
0.9371511826995774 13.01475227682826 4564.076464533155 22.447839397095994 0.2929749407606157
0.9624360504710334 13.02096317982813 4003.474900391523 23.47814577094559 0.2972114313283063
0.987956498013419 13.027349164237078 3515.3806160628055 24.554165934867136 0.3015294980291608
1.0137023134656296 13.033803360551117 3090.8436009608504 25.67782122761581 0.305930614349481
1.0396669652382073 13.040263782186925 2720.6743472057374 26.85111576972906 0.3104163551692027
1.0658209505313627 13.046589119044741 2397.441671716753 28.077126839741076 0.3149953035258357
1.0921551382016832 13.052721512366508 2115.078110748726 29.35788377607206 0.3196677258248998
1.1186550822806531 13.058554454785565 1867.8137021072203 30.696194888185424 0.3244386645098076
1.1452890611483315 13.064001905900607 1651.5884077661465 32.095407096113924 0.32931581722620323
1.172052540592758 13.069014434087563 1461.5750970227498 33.55751786518319 0.33429724551929424
1.1989105950783427 13.073480683809658 1294.9637441212524 35.08704406282465 0.3393963410708245
1.2258574900217538 13.077343171485209 1148.6824821450195 36.685976668156826 0.34460966559061834
1.2528551593364803 13.080502446368794 1019.8055276143552 38.359400454231306 0.34995185522872296
1.27989922900413 13.082944463118144 906.3872087682558 40.10959139446424 0.3554196924148235
1.3069436455903676 13.084528181139152 806.4993087466196 41.94195458901768 0.3610273474052103
1.333982268250341 13.085243116170266 718.3379739507383 43.86004325026655 0.3667771369671485
1.3609914668173113 13.085030806087214 640.3940234275459 45.86847955014029 0.37267644213292506
1.3879245732431547 13.08377206478414 571.5984602481523 47.97263179040256 0.3787354099393486
1.4147752072774673 13.08146234425938 510.65253744073937 50.17729724626929 0.38495989303158007
1.4415061602820478 13.078019747365964 456.71294356494946 52.48762181900259 0.39135647372600585
1.4681020877069 13.073416888476183 408.8714375346047 54.91006101137523 0.39793704120027773
1.4945120781424637 13.067549853332148 366.3930724086089 57.45080685862425 0.40471066011250284
1.5207240491398697 13.06040002598627 328.73042864930176 60.11648969915366 0.41168710550670656
1.5467087556639179 13.051905607085923 295.182495236653 62.9142176331288 0.41887692130917825
1.5724250238548005 13.042022130382374 265.3697329123616 65.85161975928726 0.42629148360141694
1.5978389736156868 13.03068202598499 238.82572050834273 68.93689357356679 0.4339430692287748
1.622936566259753 13.017859774856413 215.15888779983638 72.17885696084117 0.44184493037237416
1.647688656602051 13.003516337168476 194.02409567753287 75.58700526512389 0.4500113757877217
1.6720371696644805 12.987578790617155 175.16416408139986 79.17120998426232 0.4584563395063079
1.6959747362578645 12.970018565501913 158.30598812034367 82.94180543301752 0.46719368151724083
1.7194549732712892 12.950802905685348 143.2251263091414 86.91146670160782 0.4762446730980157
1.7424317526449273 12.929826452541125 129.73974587702273 91.09170542414181 0.4856233804532626
1.7649183010923621 12.907200287599656 117.63320402526033 95.4967576987674 0.49535229461041785
1.7868449519454792 12.882760225045178 106.78623401431865 100.14015390889935 0.5054483803070224
1.8081822332428947 12.856495540001028 97.0473849803622 105.03849799605054 0.5159376315419856
1.8288962444725525 12.828361366390519 88.30072309944933 110.20833888202947 0.5268425970075549
1.8489689477772164 12.7983763747182 80.43360465849467 115.66740672902802 0.5381869948454318
1.8683444043330335 12.766430507105872 73.35953807896244 121.43574387570989 0.5499995204296193
1.8870193368325876 12.73260596144305 66.98086626388266 127.53479049226043 0.5623100246244128
1.904942745883943 12.69677898034643 61.23264273721022 133.9871364630913 0.5751483174865059
1.9220816511496241 12.658953420518799 56.052053403997 140.81842998481446 0.5885505391554811
1.9383940642272655 12.619055971971436 51.37086687984375 148.05635462263174 0.602554946138681
1.9538883015347852 12.577204001680661 47.14685370024873 155.72932995908985 0.6171970005072968
1.9685012979951155 12.53326133864886 43.32585872159008 163.8711076892169 0.6325246312002213
1.9822178568553293 12.487254216068658 39.86439007534504 172.51558888578234 0.6485797903109664
1.9950000528516356 12.439166491291335 36.73124191171164 181.70187221834362 0.6654149586515525
2.0068332785071785 12.388998710862273 33.890045603341704 191.47208916947497 0.6830849410739239
2.0176773765350347 12.336714514878045 31.31577973171865 201.8722996939204 0.7016490047742414
2.0275116212684194 12.282321695579567 28.98170691891663 212.95235649994765 0.7211694516821132
2.036317231057152 12.225842471349019 26.859666572692596 224.76802340015104 0.7417174578392012
2.044057293616229 12.167238822641236 24.93298316193371 237.38024690230276 0.763369373543412
2.05071365004731 12.106520209148478 23.17861670277982 250.8560576730367 0.78620825146524
2.056282961426721 12.043762619815391 21.58658930924172 265.26876260559504 0.810322833937135
2.060725731773095 11.978902532169736 20.13493311518346 280.69968521201145 0.835811350392426
2.064026152288797 11.911998006001552 18.81510789591609 297.23907224157057 0.8627823356193473
2.0661833418958895 11.843083725386384 17.612806324601824 314.98722962063954 0.8913559081798758
2.0671707330655242 11.772182935548742 16.518453171673876 334.0534655566789 0.9216574479824565
