M[M_sun], R[km], Lambda[1], P_c[MeV/fm^3], rho_c[fm^-3]
0.24162668629717493 15.618656898711224 2160425.4255784233 3.5677272577965504 0.1711233750220791
0.2536437541350168 15.277283950462875 1723224.5675959412 3.7848146770285394 0.1738881116158361
0.26603960328449733 14.981270976599673 1383096.7240424512 4.011391124595984 0.17666653592900625
0.2788138404587774 14.723553466961523 1116428.4938924683 4.247712845913936 0.1794573359648611
0.29196747135251544 14.49846932882915 905917.5057438494 4.49440491801144 0.18226707601356787
0.30550390285299567 14.301203140172733 738692.4521612049 4.751622077172443 0.18509144532901742
0.31941965920515697 14.128143674627175 605103.4283205704 5.020048051456646 0.18793709440076284
0.33371687510036807 13.975960123106876 497698.628898462 5.299904880974528 0.19080060685817615
0.3483972608769135 13.842058226819363 411024.6225346824 5.59192352888937 0.19368832687757717
0.3634591737489205 13.724029124562023 340668.84403002315 5.8962683117400045 0.1965952627588203
0.3789124520442638 13.6200302703382 283323.6504636013 6.213804528166809 0.19952912090311936
0.3947441608216015 13.528500606369022 236412.7849529846 6.544791427324589 0.20248611233104932
0.41096808057999373 13.447901491487803 197882.48670889065 6.889927748336203 0.20546988646866646
0.4275771692921929 13.377064285980468 166086.62677784616 7.249920187102876 0.20848354642887648
0.4445699681024943 13.314957435963123 139819.50334797573 7.62503041945708 0.21152268224459359
0.4619511075963667 13.260616688444768 117990.5349986894 8.016202034460743 0.21459337233416942
0.47971481140893113 13.213176784350862 99817.2787633802 8.42414246241855 0.2176973040210826
0.4978714800842385 13.172021582694326 84651.36824304737 8.849296321804335 0.2208319997450155
0.5164103150625714 13.13639876359406 71943.17284798092 9.292529390935869 0.22400076134592842
0.5353264466869477 13.10585974448191 61282.85190371363 9.754729918757045 0.22720655931580402
0.554633992348829 13.079824471365326 51820.362043463174 10.236707388369755 0.23045074442234958
0.5743135088113555 13.057852041586786 44733.85743403278 10.73893802000619 0.23373007806860327
0.5943684552447864 13.039547469524205 38332.374740523315 11.26265639098416 0.23705062172179922
0.6148056409036824 13.024512616042731 32905.39174202183 11.808804760769481 0.24041405186500425
0.6356069359739287 13.0124362394581 28295.925820986482 12.37836200368017 0.2438220012135764
0.6567773806361944 13.003026905039345 24373.30426346824 12.972024149750276 0.24727250025220196
0.6783087788534677 12.995994298802664 21030.849425704084 13.591103878402077 0.25077017731853474
0.700196197467384 12.991067957523278 18174.630904957638 14.236805405936984 0.2543177456229963
0.7224294740859206 12.988013179255884 15732.254205525229 14.910318249288554 0.25791718945956804
0.7450161224765665 12.986641425335137 13635.888781709253 15.612680289777195 0.26156848864714
0.7679347564775477 12.986756243205688 11837.960347419188 16.34514117851821 0.2652733741642517
0.7911787155558747 12.98813490387362 10290.324266474649 17.109324596592522 0.26903661630658493
0.8147525887508517 12.99066519195245 8957.800952927113 17.90668536394804 0.2728606472078904
0.8386337597439577 12.994128948661528 7808.631026606923 18.738596529958595 0.2767466183809407
0.8628141416640995 12.998393845258978 6815.586034165548 19.606386855310348 0.280694871710649
0.8872875818132662 13.00335266326067 5956.079858284312 20.51214931395167 0.2847118347661732
0.9120470819939748 13.008842547999656 5211.948272577786 21.457677725820854 0.28880052028387865
0.9370667800522948 13.01473137806413 4566.075697858864 22.444465922670783 0.2929609292684185
0.9623411254205891 13.020933836350892 4005.0005031010396 23.474519500591384 0.297196703966928
0.9878677690703364 13.027321545913772 3517.12662058299 24.55026979892575 0.30151402053064824
1.0136082585884285 13.033786826478286 3092.299026116278 25.673670308018767 0.305914595151334
1.0395710646475258 13.04023957403636 2721.857172630999 26.84665931802221 0.31039951949712546
1.0657212878617668 13.046561516618135 2398.712876030902 28.072343994045116 0.31497760969986566
1.0920534904109047 13.052692743954617 2116.229534245067 29.352791488279667 0.3196493967155278
1.118548631657108 13.058532726517932 1868.8580630252677 30.690732358339936 0.3244193950818145
1.145179013770409 13.06398335878828 1652.4026359279326 32.08959215348903 0.32929583765609294
1.1719417396292473 13.068998949029975 1462.3519629429136 33.551282297566644 0.33427623101351256
1.1987956784172575 13.07345414742444 1295.6581910489401 35.080358437815406 0.33937423352139595
1.225740098158129 13.077324793376365 1149.2576520564187 36.67886038775416 0.3445867095716159
1.2527342037959992 13.080488745342192 1020.3602464495199 38.35181517262044 0.34992794418562906
1.2797761711097897 13.082930645811032 906.8909495318134 40.10146992897837 0.3553945673138166
1.306818538598578 13.084520609890824 806.900921029343 41.93330690221189 0.3610012041378776
1.3338546803114104 13.085241389601423 718.7294381397688 43.850772381792005 0.366749579151502
1.3608623133221327 13.085037218108248 640.7407563176646 45.858604926480666 0.37264772806868907
1.387791867056375 13.083777063387156 571.9011928969284 47.962111231817644 0.3787054650335057
1.4146486800464597 13.081489095809188 510.9243131082936 50.16601538475089 0.38492828001231866
1.4413710431987214 13.078038426085907 456.971687868739 52.47559656510382 0.3913234568842731
1.467965416585743 13.073444508570981 409.10144390860904 54.89723911556407 0.39790252696272177
1.4943737050236656 13.067582791663877 366.5982509067565 57.43713075793662 0.4046745476718186
1.520585447226878 13.060440883189377 328.90420186065154 60.10189713098524 0.41164928622754565
1.5465676694172072 13.051958198688688 295.3483831313966 62.898641210488385 0.4188372780751779
1.5722835445464247 13.04208034784949 265.5217210807247 65.83498650322029 0.4262498900970311
1.5977076798314516 13.03075699438585 238.97196633714864 68.91912439793586 0.43389938914884946
1.6227948592997 13.017940486672007 215.28310951750993 72.15986610405557 0.44179901655155884
1.6475466017746383 13.003604830536307 194.1396586435674 75.56669966274508 0.44996306924087104
1.671895430313835 12.987674781002367 175.27274854865877 79.14959461153275 0.45840591108902573
1.695832937100793 12.970133627890727 158.39942631031016 82.91866938495473 0.46714051494617564
1.7192980425374174 12.950893740123925 143.31709124435378 86.88669087261539 0.47618856803528764
1.7422990359945243 12.929992321160732 129.80568254104494 91.06527950174318 0.485564592502958
1.7647797625518882 12.907350034005892 117.70414507288676 95.46842709606125 0.4952901309421644
1.786707869924208 12.882917805895879 106.85046591526867 100.10989395711323 0.5053830806438587
1.8080463557994058 12.856669265663978 97.10783197340461 105.00615177264272 0.5158689442687787
1.8287586673068528 12.828541728407021 88.35110240095005 110.17373522193377 0.526770249959137
1.848837855934697 12.798583343486651 80.47973684068748 115.63021739019624 0.5381101745044595
1.8682267247183533 12.766682108568453 73.39618611723621 121.39590119142647 0.5499184153251332
1.8868973744125086 12.732840192411144 67.02290337743544 127.49215067668571 0.562224571962946
1.9048213831374912 12.69703273142334 61.27144308389346 133.94145193087647 0.5750581220349925
1.9219652250440953 12.659224533541565 56.08671491032106 140.76936126725303 0.5884549346337812
1.9382812533280547 12.61934430062028 51.40325096432821 148.003607853418 0.6024534851037829
1.9537798387752874 12.57751044333625 47.172971344706774 155.67275612157889 0.6170897874220925
1.9683984436906652 12.533592026260713 43.34847979682908 163.81036392628 0.6324111613462393
1.9821163434893971 12.487601336204222 39.888260306430496 172.45011585721144 0.6484589015223831
1.9949089657688368 12.439534517956899 36.75375423638532 181.63143256583683 0.6652866518478103
2.006748061283684 12.38938358775894 33.909610866163376 191.3962254370594 0.6829485599323117
2.017598492649491 12.337121268063642 31.33375099531111 201.79050725237326 0.7015038312586543
2.0274385834382085 12.282745103522961 28.997351374368925 212.86428435642569 0.7210153747362105
2.036252668700102 12.226290438508336 26.875793099535397 224.67285630843665 0.7415529592555657
2.0440014737335006 12.167707280364983 24.94783565878632 237.27752120362638 0.7631942167906255
2.0506644635058104 12.107013980738545 23.192350360343404 250.7450311485537 0.786021436113482
2.0562405817840137 12.04427932590225 21.59693634843371 265.14838324123576 0.8101225156809475
2.060692727841472 11.97944369520635 20.14606961378334 280.56949542160714 0.8355978088347548
2.064003291686646 11.912555797204497 18.82494598119359 297.0978255150639 0.8625534906136605
2.0661690074064603 11.843667508074773 17.62234894793621 314.83379165669675 0.8911102841785281
2.0671678447656405 11.772786791061593 16.527029192611437 333.88682428270073 0.9213942514014191
