M[M_sun], R[km], Lambda[1], P_c[MeV/fm^3], rho_c[fm^-3]
0.24162668629717493 15.618656898711224 2160425.4255784233 3.5677272577965504 0.1711233750220791
0.25364046606056867 15.277417121219669 1723277.9660216484 3.784771885398054 0.17388757823880546
0.2660342649499813 14.981378860380588 1383157.0581038585 4.0113011688364635 0.1766654488667407
0.2788058876243462 14.723689741554022 1116549.8787010843 4.247572683493238 0.17945571029200127
0.2919583290340004 14.498568153364632 906036.6462625684 4.494210871800408 0.18226491526397226
0.30548945927324866 14.301436171636636 738768.0431891012 4.751367559379901 0.18508869605110345
0.3194022699502412 14.128365296046947 605215.3555334313 5.019731188129154 0.18793380682144212
0.33369779553370676 13.976179319242604 497848.70200196945 5.299517331132808 0.1907967048743315
0.34837329823955443 13.842265474284952 411169.3410834752 5.591464325832512 0.19368388396167968
0.36343221107968293 13.724225707152836 340780.16183027596 5.895727140231594 0.19659017996148923
0.37888052650147885 13.620256920167925 283420.95651519386 6.213174840624656 0.19952337891092808
0.3947097638191033 13.528664988261898 236514.62233342842 6.544073878436029 0.2024798203966577
0.4109301604166189 13.448081892550668 197962.09913986133 6.8891084877362045 0.20546290930160752
0.42753376301167617 13.377240088674093 166160.53469039692 7.2489915286118105 0.20847586387517467
0.44452365940258426 13.315110538062678 139874.22256756504 7.623994930628263 0.21151443908769907
0.46189926084310123 13.260740578204434 118047.60590509603 8.015041656396752 0.21458439587171907
0.4796589623805887 13.213330624780616 99871.62285292246 8.422848148678552 0.21768757259117524
0.4978104207936757 13.172136843434183 84695.81238613302 8.84787284541018 0.22082169316771713
0.5163432820169729 13.136532795876326 71985.55229140636 9.290953718918134 0.22398966851669186
0.5352551331290148 13.105989394303935 61318.654046483614 9.752991370078076 0.22719465629128038
0.5545565824037645 13.079920439102441 52338.25286582408 10.234794633075312 0.23043800621825686
0.5742341197954073 13.057928184091038 44764.682670336966 10.73685936935512 0.23371673248753802
0.5942832293635995 13.039601504614492 38356.10505939979 11.26038058987601 0.23703640247529192
0.614714213578793 13.024567921369638 32928.077134029365 11.806318367995063 0.24039893044848104
0.6355094038564226 13.012496688891101 28317.60405461558 12.375650739600875 0.24380594761777905
0.656674806276043 13.003064341743597 24390.215342146465 12.969100464712815 0.2472557896674413
0.6781996790387804 12.99602551881977 20883.511504825314 13.58792626227939 0.2507524852032979
0.7000810966481393 12.9910905263624 18188.99052663066 14.233356824935374 0.2542990369027545
0.7223079685659634 12.988011815612971 15743.607713434643 14.906580575330613 0.25789742696842555
0.7448878816066095 12.986653407430115 13646.737473629139 15.608670692851398 0.26154799424732605
0.7677997416522442 12.986763869902223 11846.82413522063 16.340805370005146 0.26525176124627237
0.7910382730439446 12.988130852549954 10299.898253401585 17.10464082128357 0.2690138406933169
0.8146061316696441 12.990632947263736 8965.301208719147 17.901630424512376 0.2728366618817137
0.8384803281753969 12.994101672732802 7814.971761468007 18.733192844945485 0.2767217912442472
0.8626539044956323 12.99836518667718 6821.78280506333 19.60056417730372 0.2806687490266041
0.887121452099404 13.003305444527893 5961.713778932676 20.505879625601757 0.28468436001969327
0.911873400413964 13.00880398860934 5216.6499524630535 21.45093109151372 0.28877163314951304
0.936887709885282 13.014678622342558 4570.206266500622 22.43727044290775 0.29293104334196773
0.9621571438191625 13.020877390743484 4009.15796019422 23.466784896214666 0.29716529144037923
0.9876751345342605 13.027271714618344 3520.7088010670554 24.541959673401855 0.30148100834694364
1.0134142185893575 13.033736677432206 3095.7271642882542 25.66481682401835 0.3058804278514916
1.0393645979572823 13.040183568182908 2724.710646146554 26.837154264118663 0.31036361111504857
1.0655117492719974 13.046523009863552 2401.2735055227745 28.062142889444907 0.3149398713781692
1.0918318215697167 13.052646806524331 2118.1913519732675 29.341930481478517 0.3196103037597358
1.1183233569108837 13.058484160347652 1870.9331010030107 30.67908181077546 0.3243782970203442
1.1449480153297082 13.063946149885565 1646.1331662863884 32.07718887281025 0.3292532175343375
1.1717024509048346 13.06895748357788 1463.9742981358838 33.53798326597705 0.3342314119058681
1.1985509229554798 13.073424125340654 1297.107506387833 35.066099694455545 0.33932708372265896
1.2254905345328146 13.077289379389992 1150.5008621637992 36.66368330213217 0.3445377506427617
1.2524788432538967 13.080462797996775 1021.487548244786 38.33554517031439 0.3498764043850626
1.2795145569364208 13.082914280438166 907.8985954448657 40.08414941365553 0.355340983425818
1.3065530255009925 13.084509918056686 807.8804185807103 41.91486429695707 0.3609454493481498
1.3335833405309405 13.085228017327816 719.5376374134871 43.83100097208728 0.3666908082968395
1.3605858744151744 13.085039819251788 641.5112159460703 45.837546130350844 0.3725864919501648
1.3875117248535225 13.08379952901958 572.5842999816427 47.93967512598728 0.37864160463378
1.4143624490103677 13.08152010511296 511.5323996619794 50.141956022670485 0.38486086302837286
1.441089446524764 13.078100452658303 457.518776142704 52.449952130679684 0.39125304687548373
1.4676713301530224 13.073504410272282 409.5863162610455 54.86989609117175 0.39782892445859336
1.4940778255774723 13.067654586179925 367.07751365427976 57.4079664325023 0.4045975377845415
1.5202872646442942 13.060528394300677 329.3073262832633 60.07077877703277 0.411568637386192
1.5462677742567632 13.05206257637011 295.72533936353767 62.865425179087865 0.418752740634472
1.571981556288919 13.042206398241202 265.8495448777388 65.79951722769621 0.42616119480723746
1.5974037307267523 13.030901713110415 239.27035046695852 68.88123329608233 0.43380624547174274
1.6224906991183357 13.01810364148456 215.56079762240978 72.11937036734632 0.44170111080564955
1.647242851974536 13.003791402889654 194.39397315098185 75.52340091959542 0.44986006255702526
1.671591734285181 12.987888781310906 175.49926401421124 79.10350345667833 0.45829838095206743
1.6955310034109263 12.97036830219108 158.61025080386153 82.86933628126164 0.46702714761757025
1.7190035106425516 12.951179393721308 143.50162255125645 86.83386195444146 0.47606893652794596
1.7420092585077316 12.930300968903337 129.98139025607358 91.00893277613348 0.4854392417789606
1.7644875202218624 12.907672573227519 117.86136669948317 95.40801995162137 0.49515758417900335
1.7864144493573553 12.883265567131502 106.98433015558315 100.04537380170039 0.5052438489476055
1.8077565665103599 12.857040123493249 97.2329110466796 104.93718414955737 0.5157224913765952
1.8284844833127927 12.828970025336664 88.46968017483674 110.09971605902997 0.5266151052165868
1.8485598044552272 12.799019355014375 80.58699951585874 115.55092568484883 0.5379463852026758
1.867953481401579 12.76715325668487 73.49369702212894 121.31095344817754 0.5497454928497534
1.8866318814576328 12.73334887921228 67.11089211879576 127.40107014097588 0.5620417740545206
1.9045636136016026 12.69757119406438 61.350194476680855 133.84405157490895 0.5748658234897704
1.921716209428004 12.659804097400238 56.158458194341854 140.66474736514638 0.5882511069698211
1.9380477569204029 12.619988178232017 51.471426132445664 147.89115417263204 0.6022371748538716
1.9535437688075707 12.578140489772844 47.23691186247368 155.55214507050363 0.6168612174069684
1.9681795502009092 12.534285282998086 43.40454675725209 163.6805806679289 0.6321682939599141
1.9819110943136202 12.488340387442538 39.940381397194 172.3105369783376 0.6482011843837815
1.994711914672516 12.440313208144856 36.79995413705458 181.4812680339443 0.665013125070819
2.0065604274381155 12.390190894397072 33.95512869055806 191.2345005034295 0.6826578250795264
2.0174306471710652 12.33798722871649 31.375185341240304 201.61614668092656 0.7011943584435886
2.027284883659295 12.283657758313389 29.03509995182176 212.67654021798936 0.7206869275983911
2.0361144626786087 12.227247600940002 26.909102591497636 224.46999166480853 0.7412023028895324
2.0438793978655143 12.168714305067201 24.977452624080236 237.0585481177423 0.7628208475639828
2.050560846425391 12.108069808860487 23.221255709207107 250.50789448603885 0.7856216794272242
2.056149448544034 12.045352534384365 21.62377330715311 264.8917894086685 0.8096955286357681
2.0606251101493953 11.980585865911419 20.169662859803143 280.29172866919345 0.8351417729284171
2.0639602025523103 11.913764946339127 18.847236050378214 296.79676426504847 0.8620657174441451
2.0661406607836406 11.84491072442322 17.642385520079248 314.50675260992944 0.8905867589882835
2.06715943383482 11.774083340843353 16.545757846873737 333.53165139063816 0.9208332841894167
