M[M_sun], R[km], Lambda[1], P_c[MeV/fm^3], rho_c[fm^-3]
0.24162668629717493 15.618656898711224 2160425.4255784233 3.5677272577965504 0.1711233750220791
0.2536435992608567 15.277304135028535 1723219.29264876 3.7848123883786813 0.1738880830889197
0.266039171659314 14.981268826011965 1383036.5274758982 4.011386313402845 0.17666647778857653
0.2788140448778047 14.723555669034038 1116427.8203840503 4.247705349413148 0.17945724901674895
0.29196713454280204 14.498490947545235 905951.177929952 4.494394539495113 0.18226696044637986
0.305503460211021 14.301217988547128 725437.4669080289 4.751608464249044 0.18509129828346405
0.3194185628256616 14.128168628773164 605120.7454375477 5.020031103856569 0.18793691856287087
0.33371519213307343 13.97600005876653 497686.17782272206 5.299884152522991 0.1908003981570639
0.348396030181333 13.842068617051147 411030.97960793163 5.59189896783946 0.1936880892426628
0.3634567961691001 13.72405510465552 340662.9854288016 5.896239366305112 0.19659499089717028
0.37891014996147837 13.620046942083084 283327.9534362388 6.2137708480776634 0.19952881378125983
0.394741485649697 13.528510873283683 236419.6060644482 6.544753047556613 0.20248577579233268
0.41096571844556873 13.447937409382268 197884.76890161954 6.889883927986874 0.2054695132761831
0.42757380712403587 13.377083722795229 166093.08267941864 7.249870514982433 0.20848313550415393
0.4445669571968202 13.314971900447013 139820.17457788932 7.624975032860376 0.21152224133167033
0.46194894910023454 13.260587304630485 117989.08363024963 8.016139967336366 0.21459289219478325
0.4797116703458652 13.213196106396738 99833.46833096418 8.424073230795226 0.21769678349605923
0.49786745807552424 13.172015646955193 84650.30384740124 8.84922018095489 0.220831448452733
0.5164047365788985 13.136427526913536 71946.45919177168 9.29244510869541 0.2240001679937012
0.5353225170143647 13.10586613435439 61285.560443975635 9.754636923693134 0.22720592262237135
0.554628839527466 13.079838448417611 52308.02023009774 10.236605074328343 0.2304500630507466
0.5743092755334894 13.057871299573117 44736.6519251703 10.738826831544044 0.2337293642042344
0.5943635616982517 13.039572897662852 38333.01534967238 11.262534656033978 0.23704986111962753
0.6148006168051728 13.02451675383919 32906.61081107583 11.80867176020954 0.2404132429996933
0.635601123037954 13.012457229162006 28298.323648800804 12.378216973525793 0.24382114247927067
0.6567721403131347 13.003032059846685 24374.656822856938 12.971867756000872 0.24727160636966264
0.6783026628797326 12.995994109764405 21030.478324854765 13.590933900298795 0.2507692309259955
0.7001900595942994 12.99105721052511 18175.3960307175 14.236620932124097 0.25431674484355815
0.7224224291441017 12.988001231352793 15731.981386270585 14.910118309855731 0.257916132304419
0.7450088981802195 12.986655449886682 13636.421891735763 15.612465803243127 0.2615673923342524
0.7679284977635961 12.986757572765892 11756.551946791935 16.344909240384908 0.26527221801082923
0.7911719125829794 12.98813166031742 10290.849837780626 17.10907404286182 0.2690353979486371
0.8147449318735479 12.990664771602539 8957.795057838566 17.906414953452323 0.2728593641294235
0.8386263020123378 12.994124715511429 7809.098225512161 18.738307462053765 0.27674529026348577
0.8628052720525673 12.998392748129323 6816.09142613158 19.606075371553185 0.2806934742794731
0.8872796593914755 13.003333720033512 5956.536419711254 20.511813915247856 0.28471036499704866
0.9120377342240009 13.008834667843978 5212.21854467568 21.457316810424636 0.28879897494866846
0.9370558299139742 13.014729720747974 4566.17888719218 22.44408099398605 0.29295933049380724
0.9623335074996305 13.0209256047525 4005.204912608309 23.474105728241934 0.29719502351447313
0.9878570564863776 13.027319589144696 3517.2550229970557 24.54982523542086 0.30151225449088753
1.0135980868785075 13.03377942326587 3092.4325259608963 25.67319667415226 0.30591276730702643
1.03955979568277 13.040236953444209 2722.022143050575 26.846150823791874 0.31039759849748755
1.0657101540436311 13.046557077079813 2398.8529948916967 28.071798259334333 0.3149755907898668
1.092039967258203 13.052689410793503 2116.276291296168 29.352210447201404 0.31964730532440705
1.1185366987267493 13.058530162619105 1869.0123367966519 30.69010907420408 0.32441719640663746
1.1451665453552988 13.063980885784686 1652.505686467039 32.088928660487234 0.32929355795949017
1.171929115951478 13.06899727243818 1462.505706486778 33.55057081342517 0.3342738332385987
1.1987830261089056 13.073455055275854 1295.7269153536083 35.07959560469074 0.3393717110390572
1.225727579289966 13.077320288997573 1149.34632330398 36.67804841923291 0.3445840902868563
1.2527220215079644 13.08049101577076 1020.4466794932626 38.35094472712399 0.3499251868051169
1.2797617437260935 13.082928871866693 906.9462941966964 40.10054327548049 0.35539170055746905
1.3068052943591084 13.084520490323476 806.9683333169125 41.9323202105341 0.3609982212194525
1.3338403589411416 13.08523471903659 718.7987080101304 43.8497145901816 0.36674643484778635
1.3608484186865133 13.085035163207959 640.8029983828977 45.85747825124776 0.37264445185015904
1.3877778425822278 13.08377871237537 571.9648217371675 47.96091086090675 0.37870204839040517
1.4146333597703127 13.081491804624289 510.9644060080492 50.164728156597064 0.38492467305717615
1.4413557918072755 13.078043789660336 457.004209945082 52.4742245230293 0.39131968977079623
1.4679489040321863 13.073448281777697 409.1322573676594 54.895776184724404 0.3978985890160038
1.4943580593283134 13.067585984341372 366.64090892649557 57.4355703714374 0.4046704273917633
1.5205687886007517 13.06044442828345 328.9238775078942 60.10023218582881 0.41164497122110316
1.5465516518335054 13.051963110850863 295.36883027220676 62.89686401912587 0.4188327549818673
1.5722676244464318 13.042086867446441 265.53887537566055 65.8330887402187 0.42624514450702683
1.5976914552356216 13.030764702456787 238.99121715500743 68.91709704121136 0.43389440551282704
1.6227783070531991 13.017950304893262 215.29562386869145 72.15769937005568 0.4417937780813967
1.6475307544396152 13.003614835728236 194.15148156006072 75.56438293488873 0.44995755780020336
1.6718790023850347 12.987686005384749 175.28016373636183 79.14712845718952 0.45840015757915764
1.6958173133650385 12.97014547480595 158.40853941730347 82.91602974489372 0.4671344490610033
1.719282566450752 12.950906165703962 143.3266385423488 86.88386415980548 0.47618216692154236
1.7422832771337828 12.93000699071787 129.81099381895507 91.06226453954348 0.48555788532183136
1.7647641383596981 12.907365926364903 117.7140445721919 95.4651948427911 0.4952830386567626
1.7866911729860682 12.88293774533657 106.85006261351297 100.10644159843598 0.5053756306036096
1.8080305870176359 12.85668979232045 97.11299957374803 105.00246140779154 0.5158611077712819
1.828743023775883 12.828563869072116 88.35771979888074 110.16978732558874 0.5267619959580506
1.8488235730479523 12.7986068199324 80.48913745107491 115.62597451966668 0.5381014101980476
1.8682103847668072 12.766707283783926 73.4016887607597 121.39135562757899 0.5499091622229031
1.886883326117511 12.732867172322472 67.02806220826353 127.48727690123611 0.562214790334507
1.9048087227603037 12.697060164453015 61.27446070641764 133.93623993426513 0.5750478319353711
1.921952157610749 12.659256299903586 56.090327060188784 140.76376321073738 0.5884440274908554
1.9382676910026786 12.61937729508192 51.406265960556894 147.9975902164076 0.6024419098795972
1.9537680885160442 12.577545294887443 47.176333827850186 155.66630190544765 0.6170775560364476
1.9683872006780296 12.533628857268209 43.35109952158802 163.8034340224257 0.632398216228248
1.9821065510438824 12.487640866727425 39.89092791431637 172.4426464652452 0.6484451101068038
1.994899284931995 12.439575457941194 36.7562358785477 181.62339661086273 0.6652720142444002
2.0067382113776215 12.389427547382525 33.912302090585726 191.38757074004056 0.6829330012796836
2.0175903920313605 12.33716700593271 31.337607104523588 201.78117625409 0.7014872696571286
2.0274304220188935 12.282794373716698 28.999977877482426 212.85423702078384 0.720997797523618
2.036245816104873 12.226340860787026 26.878428469303426 224.6619996492261 0.7415341932616599
2.0439949909549924 12.16776089577601 24.949046960871442 237.26580233484327 0.7631742350428367
2.0506543316413604 12.107071097615062 23.18926935084328 250.7323413257648 0.786000046065285
2.0562366820553573 12.04433809405228 21.599421215914465 265.13465065227433 0.810099663855069
2.060689498564656 11.97950208439345 20.146688259472104 280.554643784676 0.8355734486934994
2.064000689829025 11.912619902437605 18.826485709390614 297.0817126610602 0.8625273849030554
2.066167491956337 11.84373363345795 17.6234227397272 314.81628821461305 0.8910822646104143
2.067166846548 11.772855338716889 16.52822415345717 333.86781482110433 0.9213642274752927
