M[M_sun], R[km], Lambda[1], P_c[MeV/fm^3], rho_c[fm^-3]
0.24162668629717493 15.618656898711224 2160425.4255784233 3.5677272577965504 0.1711233750220791
0.25364503470474553 15.27726848613183 1723272.4463398047 3.784839295432572 0.17388841847236605
0.26604181105767993 14.981222078171802 1382959.917018043 4.0114428775951225 0.1766671613334583
0.27881788984156936 14.723462427982335 1116417.647121196 4.247793484599059 0.17945827125208863
0.2919738330160728 14.498341271578752 905842.0449410874 4.49451655861633 0.18226831915761377
0.3055105643925587 14.301166445223261 738574.1965676699 4.751768510657911 0.18509302709013298
0.31942831917202696 14.12806843109763 605047.5927890226 5.020230356709804 0.1879389858881277
0.3337263013305772 13.975955036607788 497659.6806242888 5.3001278578752835 0.19080285186558119
0.3484105218138053 13.84194712779992 410957.16855361627 5.592187734382304 0.19369088313840174
0.36347507760901226 13.723899123159201 340625.1279894243 5.896579681896955 0.19659818721322733
0.37892822185853664 13.619963543335894 283256.489796292 6.2141668313216 0.19953242467164967
0.39476391832745095 13.528372761568061 233258.78167894046 6.545204287539157 0.20248973255738426
0.4109902374097287 13.447796262068914 197834.63754520862 6.890399136271004 0.2054739010061295
0.4276008832573362 13.376968429058286 166050.8023721846 7.250454526570862 0.20848796688235566
0.4445971491539574 13.31487890964768 139777.65104502146 7.625626233807354 0.21152742530992913
0.4619802594634707 13.26053289540448 117960.02356618133 8.016869716660587 0.21459853739578308
0.479747198440836 13.213111188960907 99791.28669167604 8.424887219385822 0.21770290355232533
0.49790671570967737 13.171921176588656 84623.1902550515 8.850115407676125 0.2208379302766957
0.5164459411396964 13.136354853238657 71923.14423738819 9.293436061780131 0.22400714436519636
0.5353674421668138 13.105794781924033 61261.1687194548 9.755730322553353 0.22721340860973815
0.5546748509934262 13.079775945110397 52291.353807574735 10.237806974995337 0.23045806059740417
0.5743602782228328 13.057806193439777 44718.11040323099 10.740134150593901 0.23373775759749127
0.5944190138868897 13.039501538525451 38318.43103241484 11.263965982910262 0.23705880407585228
0.614859313995533 13.024470634256735 32892.642262450485 11.810235551136556 0.2404227534576571
0.6356648830300926 13.012414487281005 28283.799758132864 12.379922212316911 0.24383123932468664
0.6568377131896017 13.002997902480333 24363.740851088827 12.97370661188829 0.24728211651585677
0.6783714570769498 12.995966879269998 21021.445709191485 13.592932486795762 0.25078035852015723
0.7002624900783201 12.991058540074993 18167.192596910714 14.238789966139208 0.25432851195894984
0.7224993170979356 12.988002325130088 15724.328995244967 14.91246919691314 0.25792856233046507
0.7450893647204158 12.986641826720557 13629.52565651258 15.614987743086626 0.26158028281786355
0.7680126582427973 12.98675306369175 11832.33892870427 16.347636387209327 0.2652858121537569
0.7912581456963423 12.98815070009723 10286.35817753154 17.112020084715414 0.2690497235525577
0.8148373475649744 12.990663222986388 8953.295489321566 17.90959448592825 0.2728744507836743
0.8387220049230627 12.994142936549556 7805.120712091231 18.741706382270046 0.27676090654323104
0.8629051446898153 12.998414808593036 6811.71498583148 19.6097378762566 0.2807099056282565
0.8873876835404538 13.003367706490291 5953.116122799758 20.515757633370637 0.28472764698134584
0.9121490021748543 13.008852694237328 5209.200593083858 21.46156057814479 0.2888171455331062
0.9371695798530807 13.014760468639095 4563.456239233008 22.448607132688977 0.2929781294971866
0.9624549675654046 13.020968932441784 4002.9642206755757 23.478971041139577 0.29721478299577575
0.9879790892980644 13.027348834413827 3515.182140862884 24.555052624892085 0.3015330204276984
1.013723329894028 13.033808761669142 3090.618542155435 25.67876590485458 0.3059342600408799
1.0396905574220774 13.040266854283121 2720.2657220149813 26.85212998489449 0.3104201866914684
1.0658441592353671 13.046596415224032 2397.243394025573 28.07821534128062 0.31499933036634725
1.092178724928479 13.052726944378309 2114.7571395088653 29.359042705688733 0.3196718972599334
1.1186796200754217 13.05855456921329 1858.4661902498647 30.697438084628125 0.32444304996581635
1.1453123619220489 13.064009271519971 1651.3815902838 32.09673050133567 0.329320364316195
1.1720785110896788 13.069026669142557 1461.3937926487106 33.55893700522812 0.3343020281675651
1.1989367942868299 13.073479297689598 1294.8615731666735 35.088565637078105 0.33940137250438096
1.2258841957147244 13.07734318579485 1148.5461159481251 36.687596260519044 0.34461489014487134
1.2528829523812661 13.080506757406821 1019.6970839991242 38.36112463857299 0.3499572845199233
1.2799271450595404 13.08294653117724 906.2843071078639 40.11143977151565 0.3554254106759177
1.3069712193719298 13.08452532150178 806.4167355875543 41.943922736861325 0.3610332974143147
1.3340119016619998 13.08523781528867 718.2650849091054 43.86215323923787 0.3667834089455772
1.3610209195594931 13.08503310247965 640.3037976071986 45.870726958412455 0.37268297729089317
1.3879543094621714 13.083765450913724 571.5308921230996 47.97502621909853 0.37874222525635576
1.4148059482144812 13.081458482128546 510.5949963517179 50.17986495622629 0.384967088037847
1.4415369897522912 13.078014525145035 456.6636849108866 52.4903587333601 0.3913639882673984
1.4681332126543962 13.073411493516193 408.8205998440927 54.912979251233814 0.39794489657714305
1.4945445866416311 13.067539935724701 366.35098405106413 57.45391952702472 0.4047188792720096
1.5207562078558443 13.060390687035943 328.6950803583244 60.11981096900501 0.41169571317810666
1.5467402043620595 13.051895863296087 295.1428810097395 62.9177628439103 0.41888594415247393
1.572457421204976 13.04201031983351 265.3290411410797 65.85540552350227 0.42630095037087246
1.597871946151697 13.030667254415139 238.7943410136834 68.94093789404515 0.43395301095288213
1.6229689739016773 13.01784452767201 215.12376790959877 72.18317936012039 0.4418553805520706
1.6477219532145402 13.003495068188432 193.98321888041184 75.59162692829375 0.45002237061487715
1.6720709535313973 12.987554022773459 175.14349700146582 79.17612977833609 0.4584678173295959
1.6960069814678138 12.969994682962483 158.28451941499316 82.94707136891526 0.46720578262259693
1.719485766237239 12.9507760188554 143.20077738345637 86.91710589298627 0.47625744309195295
1.742467625773357 12.929821356726125 129.7171043055257 91.0977202180467 0.48563676115573495
1.7649502775518475 12.907166377957743 117.61064723432145 95.50320605132919 0.4953664437357856
1.7868758804670921 12.882726008228223 106.76006912786981 100.14704143529907 0.5054632432901861
1.8082128594307212 12.856454917926142 97.03730691828574 105.04586041929434 0.515953265663176
1.8289260001991046 12.828319355707645 88.28499239566271 110.21621516771934 0.5268590642257793
1.8489985335376553 12.798328964331413 80.41768092254355 115.67587160315958 0.5382044803543841
1.8683715370562262 12.766381072596955 73.34490302332297 121.4448127421542 0.5500179813183311
1.8870478368771144 12.732551813555052 66.96988704203378 127.54447979088037 0.5623294169884625
1.9049694346548283 12.696721484308227 61.22244451291183 133.99753514416824 0.5751688477117136
1.9221084383809737 12.658892008953421 56.04352554797037 140.8295990389685 0.5885723007203498
1.9384193371292873 12.618990251318559 51.36448972312407 148.06836095190658 0.6025780409103932
1.953912340355193 12.577131568104667 47.14017628406791 155.74220748735976 0.6172214047124269
1.9685252597610254 12.53319212317887 43.31829819001872 163.88493447239247 0.6325504597461018
1.9822364338040948 12.487177642142512 39.858937308052155 172.53049226880097 0.6486073077782081
1.9950230032989853 12.439083491583595 36.72689928375456 181.7179062384808 0.6654441648415567
2.0068529026471063 12.388910826376 33.88476362362558 191.4893579758334 0.6831159854142226
2.017695294703022 12.336622114516954 31.31165264918386 201.89091817678582 0.7016820507447656
2.0275281634951297 12.282226327168049 28.977022638871397 212.9724045685833 0.7212045245787534
2.0363316958635536 12.225743210510256 26.856231904891125 224.78968666984508 0.7417549033165967
2.0440649776328166 12.167134553061162 24.924350807220666 237.40363093555126 0.7634092454681947
2.050724818869107 12.106408453170872 23.176060565278572 250.8813314588693 0.7862507776202516
2.0562915479572204 12.043645341913715 21.583141180345716 265.2961184999125 0.8103682805290675
2.060732008064079 11.978780575166944 20.133064702315178 280.72932174324006 0.8358599612014832
2.0640302923047247 11.91187201760814 18.812276077749 297.27122605498124 0.8628344305584287
2.0661860876702183 11.842951580959182 17.610343886054924 315.02215898791627 0.891411823226808
2.0671712260323627 11.772045872884915 16.515800173948094 334.091400916683 0.9217173638533279
