M[M_sun], R[km], Lambda[1], P_c[MeV/fm^3], rho_c[fm^-3]
0.24162668629717493 15.618656898711224 2160425.4255784233 3.5677272577965504 0.1711233750220791
0.25362789148959114 15.277690087817872 1723657.5071972518 3.7845317480326273 0.17388458504239152
0.2660064687470559 14.98199388125843 1383799.1711186268 4.0107963833612255 0.17665934883217646
0.2787647382807392 14.724449471579982 1117320.5756912902 4.246786204334754 0.17944658831896165
0.29189709383439993 14.499544282929293 906839.5870086189 4.49312209435373 0.18225279147441145
0.30541493866216435 14.302430748010075 739625.3811263541 4.74993955311111 0.1850732708580096
0.31931129955019927 14.129397359293337 605977.3434579734 5.017953468942983 0.187915362298749
0.33358743468340746 13.977274058818274 498612.0450506963 5.297343142026702 0.19077481439766514
0.3482451491118202 13.843338204314035 411820.8927797682 5.58888827432823 0.19365895995472837
0.36328427477835706 13.725312056466247 341409.2045588392 5.89269140594008 0.19656166770259345
0.3787117925724411 13.621286885007626 280057.0679808894 6.209642739322637 0.1994911703999805
0.39451842886150174 13.529695895917948 237019.05500102695 6.540049113091518 0.202444528641778
0.41071628557703505 13.449067430012565 198416.50775776536 6.884513432206778 0.2054237758804787
0.42729647340215227 13.378177918859086 166571.63647868464 7.243783126845869 0.20843277610216404
0.44426166744575746 13.316005178562563 140232.7772557022 7.618187611001812 0.21146820908937825
0.46161324851953506 13.26157432934506 118365.56645509688 8.008534220406533 0.2145340555932987
0.4793467534234954 13.214080274208078 100163.6082290862 8.415589928627917 0.21763300092319998
0.49747253619151005 13.172832900587826 84953.28887743023 8.83989063046484 0.22076389852097483
0.5159750224988263 13.137176386927269 72212.70911129538 9.282118457377406 0.2239274677246308
0.534861643201806 13.10655413511532 61521.56852869199 9.743243248357848 0.2271279154900022
0.5541329290178535 13.080443286576912 52517.38425980412 10.22407020714264 0.2303665857251574
0.5737771018297804 13.058395230161036 44923.55104962598 10.725205250246788 0.23364190943286822
0.5938037955274514 13.040007022877854 38495.35297678853 11.247621697301614 0.23695668468359835
0.6141987128702361 13.02491521007756 33053.47885852437 11.792379446753246 0.24031415855075422
0.6349619362459855 13.01276625640007 28426.674867286598 12.360451844537591 0.2437159538323062
0.6560911978519424 13.003271560350726 24493.36569048846 12.952711383700489 0.2471621164010338
0.677587497567415 12.996181017029873 21134.259013676714 13.570114524102822 0.25065331421718096
0.6994339390130957 12.99120959723508 18265.928660153848 14.214027079133565 0.2541941720883912
0.7216269472357748 12.988081896599201 15812.146678630861 14.885631351375544 0.25778666052450544
0.7441723418689647 12.986682678030192 13708.23832007861 15.586170534391686 0.2614328555415083
0.7670486358516919 12.98672424392235 11819.833478988641 16.316505634016323 0.26513063315695234
0.7902556926900356 12.98807559682743 10348.034751143801 17.078392093003806 0.26888620201625757
0.8137753975917251 12.990526548529273 9008.586179251857 17.873302884899644 0.2727022497317674
0.8376195399404099 12.99396574079321 7853.364241764338 18.702760742571666 0.276581324881418
0.8617588101657105 12.998199681020848 6855.560064119625 19.567936927056127 0.2805223711316731
0.88618539306999 13.003105178914721 5992.348066953779 20.470749141328856 0.28453041279054175
0.9109027445696022 13.00856056218251 5243.618404415781 21.413129879721183 0.2886097793073565
0.9358796348276985 13.014452343538991 4594.7005560655025 22.39695584006208 0.29276359943340086
0.961108760775155 13.020628470891268 4030.49330249962 23.423451682146677 0.2969893023824967
0.9865889827923447 13.027010823117287 3539.926428811486 24.495404237430762 0.30129606570073364
1.0122883692103157 13.033454521675603 3112.969734530292 25.61503019041312 0.30568763114848324
1.038200890785807 13.039895888493856 2740.205373435436 26.783909003841682 0.310162460109572
1.064315655757852 13.046237919256 2414.887145950922 28.00500119526069 0.31472847940426885
1.0905989259771414 13.052360612533048 2130.7345354395866 29.28109465344494 0.3193913321322037
1.1170536557320025 13.058216442154514 1881.7700977804618 30.613826652655604 0.3241481052216476
1.1436440992466268 13.063687332960384 1664.0837417978457 32.00720878454907 0.3290111991662059
1.170362721024991 13.068714293263993 1472.9163498803387 33.4635014346963 0.3339804004550538
1.1971761569611128 13.073204077750434 1305.1707142743546 34.98624691140602 0.3390630322172526
1.2240846415771762 13.077110187985538 1157.6444852689024 36.57869099445405 0.34426357861471857
1.2510404727075555 13.080305496078482 1028.0390886017208 38.244437109833505 0.3495877940223318
1.2780458678731363 13.082798303207605 913.775505244874 39.98716277508366 0.3550409391672191
1.3050561192397678 13.084442987120092 813.1031676913041 41.81133028561036 0.36063175742965553
1.332064445671837 13.085242065380182 724.2607608741661 43.72030102606544 0.3663617508074663
1.359033309547425 13.085075225791881 645.7666065736229 45.71964328109442 0.3722436464804185
1.385940093534298 13.08391730622431 576.3544026422222 47.813721184482986 0.37828227477851106
1.412761646867141 13.081692040127903 514.9745881631072 50.00726721565015 0.38448345014808855
1.4394675152176135 13.078343615560074 460.61714934884134 52.306396440092385 0.39085889673480023
1.4660272957266514 13.073812305976865 412.41851283584845 54.71683904903681 0.39741692242787485
1.4924206501937802 13.06807088148072 369.61497388639907 57.24472223609959 0.4041664831663943
1.5186155303704245 13.06103496767313 331.61850120038775 59.89660569855063 0.4111172363578457
1.5445778641319046 13.052657690539995 297.81803943914275 62.6795205178169 0.4182795984914614
1.5702825272569965 13.042900844104173 267.72936684615553 65.60101175389214 0.4256648074335306
1.5957010254297908 13.031706149838394 240.93930421969662 68.66918512943073 0.4332849899526497
1.620793572228061 13.01903450210601 217.07436051805527 71.89275822596191 0.44115323508990095
1.6455359985873923 13.004834466956476 195.78078997165977 75.28111666755191 0.4492836740631424
1.6698833696630226 12.989046512055682 176.75707647485856 78.84437582717591 0.45769156747708206
1.6938293330156902 12.971681472404311 159.74836871136253 82.59331491240972 0.4663928513158532
1.7173197743266044 12.952638597774936 144.5385295914044 86.53829887144656 0.47539963156476606
1.740328056151262 12.931901030518588 130.92629541251844 90.69327465350061 0.4847362688640993
1.762809126894761 12.90940969909051 118.72504261904157 95.07009738190568 0.4944161066066039
1.7847674490523342 12.885184719247446 107.77531091698768 99.68446257689949 0.5044650181821755
1.806125558710686 12.859108059607866 97.95017033329 104.55044575077625 0.5148996415595686
1.8268530121880473 12.831238226690473 89.13007231232943 109.68202839804502 0.5402810310895455
1.8461389511511779 12.801404479329513 81.4248448274066 115.18400815812848 0.6219536440651275
1.8636935718167476 12.768816100245154 74.69288159887982 121.07696522980865 0.6981167847815468
1.8795975969095313 12.733100682198266 68.75407808040609 127.39378659697194 0.774426260445293
1.8938549952902313 12.693971488838034 63.48416507789441 134.16107849909858 0.8510977904295255
1.9066072064815134 12.651522397877136 58.77229405515928 141.40910550146054 0.928468930943256
1.9178773641851254 12.605558964561737 54.53712457498288 149.16994919739247 1.0067898825953794
1.927774122622339 12.556259705634565 50.70884487724634 157.47899447081855 1.0863487882098313
1.936338341978861 12.503646527188911 47.23887124517776 166.3754669318374 1.1674647271070795
1.94361169103669 12.447732935009913 44.08107729939645 175.90294868150747 1.2504835377342036
1.9496842076260563 12.38875224261806 41.19140687181382 186.10761300288084 1.3357001920679572
1.9545472431630073 12.326650318011994 38.545494951389465 197.04233815893514 1.4235016554535478
1.9582653837631405 12.261627273349735 36.12044519780914 208.764119828827 1.5142521460340947
1.960864946462943 12.193771705140735 33.89210741340479 221.33637245735676 1.6083557163555562
1.962355714037584 12.123161221123379 31.841614167091738 234.82894085887003 1.7062381465194436
1.9627949214179552 12.049992935067944 29.948684141409316 249.3193699974419 1.8083623573281957
