M[M_sun], R[km], Lambda[1], P_c[MeV/fm^3], rho_c[fm^-3]
0.24162668629717493 15.618656898711224 2160425.4255784233 3.5677272577965504 0.1711233750220791
0.2536446693998561 15.277270181501088 1723224.6631059225 3.784831645251628 0.17388832311655117
0.2660404900421111 14.981268741972182 1383023.6992042684 4.011426795274515 0.17666696698810488
0.27881679948252897 14.72347891071738 1116569.2729776814 4.247768425932053 0.17945798060931395
0.2919719416274342 14.49836495217693 905801.3373188733 4.494481865923684 0.1822679328464294
0.3055079067400277 14.301204587631423 738653.5478799044 4.751723005822709 0.1850925355510655
0.3194250449451542 14.128112218064523 604932.9689322225 5.020173704405941 0.18793839809860938
0.33372395241296776 13.975901832388487 497665.5914683898 5.300058566440697 0.19080215421581018
0.3484063884249257 13.84198218889168 410978.62206309533 5.592105630684153 0.19369008876253618
0.36347011350274994 13.723937405993498 340647.052973417 5.896482921170953 0.19659727841601196
0.3789246619993384 13.61995200336714 283287.11438336206 6.214054242442584 0.19953139799663888
0.3947574328845869 13.528407008652563 236386.12938005078 6.545075987274573 0.202488607537389
0.41098340671149136 13.447847721030191 197849.2203400475 6.89025264754473 0.20547265344666493
0.4275921535007276 13.377019713568108 166065.05596629097 7.250288474533366 0.20848659317640494
0.44458863470861937 13.314889163432136 139787.10517240275 7.625441077290618 0.21152595134500066
0.4619710644081108 13.260533811810422 117969.09435952116 8.016662225769343 0.21459693228599014
0.47973722047910117 13.213113760302244 99802.89250487559 8.424655775878472 0.21770116342070214
0.49789475344140594 13.171961799374776 84629.78925793484 8.849860864823155 0.22083608727768242
0.5164345608411094 13.13637306981976 71929.42358939986 9.293154299861087 0.22400516074372048
0.5353542488990756 13.105819659063885 61266.26570618245 9.755419430839298 0.22721128008049915
0.5546613834552185 13.079806566601732 52296.02389224318 10.237465998341998 0.23045579646883002
0.5743460364597919 13.057819963957053 44321.62833663221 10.739762431747073 0.23373537104735054
0.5944021419018338 13.039517965928 37988.76404260186 11.263559002851649 0.23705626125708124
0.6148420018759474 13.024486087599607 32896.75595388462 11.809790905224775 0.24042004926863814
0.635648109430447 13.01241823524604 28287.477716435853 12.379437345874239 0.24382836839450106
0.6568194621530221 13.00300536574686 24366.52516394309 12.973183751524367 0.24727912806042557
0.6783525679581157 12.99596936768503 21024.52060019028 13.592364206917141 0.2507771944900444
0.7002416279057279 12.991062748045453 18169.182743793986 14.238173219207061 0.2543251660767426
0.7224767896783583 12.988008545776449 15726.098218476058 14.911800739556965 0.2579250279444461
0.7450665795482648 12.986639226927558 13631.6359209648 15.614270646349889 0.26157661749501443
0.7679890253274397 12.986760118758786 11834.263493001281 16.34686093890554 0.2652819467384517
0.7912338249368995 12.988144818429289 10286.87008978991 17.111182392357208 0.2690456501382862
0.8148093557277061 12.990678597019576 8954.441661063034 17.9086903989332 0.27287016095552813
0.8386953137297966 12.994138511678832 7806.195781135406 18.740739910879512 0.27675646610725724
0.8628765675473058 12.99841335604466 6812.784184661355 19.608696452343384 0.2807052334159496
0.8873597741808826 13.003355524088148 5954.112015778982 20.514636243702768 0.284722732877947
0.912115661909746 13.008863542700306 5210.111206604731 21.460353866158705 0.2888119787418299
0.9371375796895516 13.0147441496454 4564.1472991726105 22.447320125523373 0.29297278400213145
0.9624225621057062 13.02096000043412 4003.71519671821 23.4775875855159 0.29720916437142325
0.9879446827276074 13.027346312999356 3515.7026673979562 24.553566207844707 0.3015271155984045
1.0136878596584462 13.033803185846253 3091.36620818726 25.677182280655423 0.3059281485301066
1.039653334139862 13.040257526213919 2720.815712568308 26.850429790590365 0.3104137636635407
1.0658068443081947 13.04658662403324 2397.668496819419 28.07639061687461 0.3149925799173184
1.0921381244618404 13.052714326839794 2115.13343545647 29.357099919024577 0.3196649044208195
1.1186381498711833 13.05855220103923 1867.8624544287566 30.6953540372712 0.3244356983537219
1.1452702739907328 13.064005128714124 1651.7048094347845 32.09451199596825 0.32931274175026654
1.1720351386737158 13.069016698406745 1461.70323770994 33.55655801497522 0.33429401072512865
1.1988925668346686 13.073476185361626 1295.1158722520481 35.08601493154961 0.3393929380126961
1.2258404641602767 13.077341916037264 1148.792506066244 36.684881242597775 0.3446061319173331
1.252836103885205 13.08050314152941 1019.910083191373 38.35823428826145 0.3499481830838802
1.2798795718240323 13.082944105607552 906.4330009345964 40.10834123149422 0.35541582482824674
1.3069250119980536 13.084522745524692 806.6035035345669 41.94062341974566 0.3610233230788297
1.3339638421980726 13.085240398739593 718.4230195359708 43.85861614789003 0.36677289488084247
1.360972077298468 13.085029452717935 640.4382126434749 45.86695950528362 0.3726720220489643
1.3879038248993076 13.083768917595718 571.639082846025 47.97101230956562 0.3787308003741069
1.414754472167484 13.081462891483795 510.6810348749377 50.175560568599536 0.38495502666936354
1.4414861881441434 13.078025812068226 456.7669980235941 52.485770701794095 0.39135139125170504
1.4680805515134703 13.0734225098234 408.9023169229547 54.908087256846635 0.3979317282080588
1.494490828643217 13.067554429935358 366.43783320845824 57.44870160490205 0.40470510108278346
1.5207033870302007 13.060403291513085 328.74623167548646 60.114243360808246 0.4116812837146824
1.546687084874305 13.051916226734122 295.2107733570613 62.91181983577627 0.4188708187242827
1.5724033172434349 13.04203221660059 265.38711519347765 65.84905926759623 0.4262850807767414
1.597817342712515 13.030692563242404 238.84809946375546 68.93415821192932 0.43393634517936297
1.6229160194320325 13.01787075463593 215.169592789052 72.17593352587456 0.44183786244117246
1.647666363743904 13.003529918629663 194.04099775807464 75.58387942906863 0.45000393949782325
1.6720164511012738 12.987594355225784 175.1808121476885 79.16788251328265 0.45844857655458104
1.6959540986465673 12.970036830506787 158.31951451712743 82.93824385684059 0.4671854970255592
1.7194332744697056 12.950821604534324 143.23832974877746 86.90765268302795 0.4762360362224652
1.7424111588888378 12.92986685928249 129.7393540290795 91.08763737572085 0.48561433054292075
1.7648967207086659 12.907225403300616 117.64386078198048 95.49239642446994 0.495342725000784
1.7868231658765124 12.882783790996722 106.79567666413148 100.135495611021 0.5054383279022955
1.8081615017369639 12.856521932520806 97.05724339114951 105.033518514923 0.5159270576033739
1.8288702851368257 12.828381798939738 88.3036641107465 110.2030118650669 0.5268314596321141
1.8489493673525712 12.798407679782448 80.43781181161066 115.66168163915975 0.5381751687853406
1.8683240825152505 12.766465865039677 73.36209364683044 121.42961029515327 0.5499870347073126
1.8870036844286733 12.732639118122867 66.99002017483676 127.52823730246378 0.5622969089338754
1.9049242565373932 12.696818326939562 61.24002639065801 133.98010350745713 0.5751344322483707
1.9220640268859202 12.658994723159271 56.05719856155799 140.81087601571994 0.5885358211510557
1.938376767486697 12.619100912536048 51.37652653003784 148.04823439472372 0.6025393264762934
1.9538722886931408 12.577251853998977 47.15138455989586 155.7206205295952 0.6171804952665783
1.9684859713661509 12.533314342938516 43.32699798807315 163.86175626961875 0.6325071626706963
1.9821992865136002 12.48730765371358 39.868566130139875 172.5055093546399 0.648561179558785
1.9949859434832464 12.439224545066327 36.73478989704501 181.69102803063555 0.6653952058132792
2.006820145151412 12.389058312412999 33.893099007032056 191.46040989077835 0.683063945094539
2.017665602997546 12.336776496384095 31.3188331415454 201.85970762597856 0.7016266550957497
2.027499595965409 12.282386869950573 28.98362325212819 212.93879760108027 0.7211457311997479
2.036307468883428 12.225910628716283 26.862079283221803 224.75337214330017 0.7416921327929376
2.044048764928378 12.167310774036476 24.934649832481682 237.36443189744224 0.7633424075073338
2.0507064572505787 12.106596177677588 23.18137090498619 250.8389646371691 0.7861794903964495
2.056276651194279 12.043841795169477 21.58871295314871 265.25022955169106 0.810291993858691
2.060719605189858 11.978985672650463 20.13630924858432 280.6796416855741 0.8357784743439789
2.064022608334457 11.912084472812268 18.816447049496798 297.21732630512764 0.8627471033058486
2.0661807881282113 11.84317395332385 17.613875012615395 314.96360661432357 0.8913180923930516
2.067170256864027 11.77227358818674 16.519876615717983 334.0278096424815 0.9216169265153618
