M[M_sun], R[km], Lambda[1], P_c[MeV/fm^3], rho_c[fm^-3]
0.24162668629717493 15.618656898711224 2160425.4255784233 3.5677272577965504 0.1711233750220791
0.2536360031588158 15.277487646965291 1723450.7380234257 3.7846731293544025 0.17388634729236283
0.2660224989973217 14.981670850229412 1383422.101325683 4.01109357124981 0.1766629401724217
0.2787894020615391 14.723987872204853 1116819.0219589444 4.24724922855548 0.17945195870215946
0.29193411621786824 14.498990911080952 906444.4831332244 4.493763079608785 0.1822599289939914
0.30546032293037756 14.30179289613848 739144.8690879804 4.75078023436464 0.185082351820012
0.31936522252827676 14.128765860014731 605549.1846827496 5.019000012125278 0.1879262205881939
0.3336516696595876 13.976657651870315 498132.7254955658 5.298623064979903 0.19078770109802765
0.34832126534376967 13.842651445388434 411400.9726576581 5.590404745220221 0.19367363222777517
0.36337170748708053 13.724643197507602 341026.3063247902 5.894478452974109 0.19657845202651653
0.3788136201213371 13.620658260922387 283649.12062460335 6.211721948203222 0.19951013028144096
0.3946312354979187 13.529076868491087 236724.0032925543 6.542418297732301 0.202465303190466
0.4108425698534451 13.448494177238336 198148.7927530765 6.887218274784705 0.20544681145491545
0.42743510137355356 13.377642678003253 166340.66284320282 7.246848960849766 0.20845813896117235
0.4444160577048842 13.315494818827148 140032.7682921163 7.621605937628933 0.21149542116730694
0.4617813902664968 13.261082336242785 118179.68972070917 8.012364590860757 0.21456368660548364
0.47953093079451364 13.21364448580027 99989.65715450108 8.419862153282738 0.2176651220801437
0.4976712684709371 13.172426975421129 84800.8891684561 8.844588936330963 0.2207979162628772
0.516190389009944 13.13680417445775 72086.26210546224 9.287318781914042 0.22396407833357115
0.5350936824742474 13.106195452874937 61403.18815412666 9.7489807810296 0.22716719767572602
0.5543824628410677 13.080168766159074 52410.22262383571 10.230382272562322 0.23040862161850775
0.5740439909933165 13.058119790689284 44828.376054150875 10.732064412236456 0.23368594737754436
0.5940875977316978 13.039777715087396 38414.883948185634 11.25513096969253 0.23700360275338683
0.6145015175665401 13.024711988202244 32975.937774396516 11.800583100463756 0.24036405045280812
0.6352838920948648 13.012618813446164 28363.050090158347 12.369396908598192 0.24376891822035932
0.6564323849702336 13.003138281862567 24431.76934922979 12.962356786968773 0.24721724557083155
0.6779475438689765 12.996084224812932 21083.027106415007 13.580597036969312 0.25071167804038835
0.6998153466941792 12.991123183494484 18219.79578668846 14.22540279018282 0.2542558858760251
0.7220279676833246 12.988045992570346 15772.48520227723 14.897959948119956 0.2578518464627928
0.7445922588929388 12.986668864687058 13671.409199208 15.59942306761399 0.2615007265213047
0.7674923173861279 12.986745391712487 11870.121678402102 16.33080560037869 0.26520191490271333
0.7907151286294146 12.988095601130881 10318.944122747587 17.093838767861044 0.26896131396540535
0.8142667714896674 12.990600788575334 8983.299560088293 17.889972625676087 0.27278134645980806
0.8381267108603974 12.994048500129598 7831.53539109592 18.72073098904858 0.27666453546433833
0.8622847337621538 12.99829802220764 6835.622255085789 19.587136349704554 0.28060850683265437
0.8867359832775924 13.00322822039462 5974.332985218 20.491421261166135 0.28462100122493156
0.911473261464381 13.00870979758902 5227.852944560112 21.435373206478534 0.28870501879115346
0.9364709156086105 13.014586641554288 4580.735905862423 22.420677815014553 0.2928621270121091
0.9617260842616968 13.02077298679901 4017.868126250395 23.44894946576153 0.2970928564578863
0.9872272007821531 13.027168246319718 3528.532827435586 24.522797574749173 0.30140488642567187
1.0127005474821669 13.033411896544642 3106.1632349940846 25.646011094106292 0.330945601789921
1.037061347622725 13.03784663015694 2752.278879033965 26.84792796766399 0.3700936727192192
1.0605034382094447 13.039828882892456 2450.348012886945 28.12068535629898 0.40834186325492594
1.083162246064386 13.039208169145583 2189.878151981195 29.471108954191358 0.44600756363486765
1.1051259471640613 13.035768250583244 1963.1840928225872 30.902234509380072 0.48315164564604934
1.126521096620552 13.02966817175456 1763.835411539495 32.41735730643657 0.5198563216082872
1.1474219420248875 13.020924550233778 1587.9123661902233 34.02009571389186 0.556218936386002
1.1678936988891353 13.009578210535665 1431.4867852202456 35.71380750336072 0.5922936849501085
1.188020714644371 12.995781952709054 1291.943119135069 37.502248009875935 0.6281636546963484
1.2078217427986984 12.97957991273402 1166.9043830476473 39.390979993628434 0.6640206094100178
1.2273390546997254 12.961039564151385 1054.7615686351687 41.38442760540398 0.6999355287797542
1.2466287655489188 12.94039257087365 953.9610371930023 43.48669331700221 0.7359531906371729
1.2656997471090354 12.91762073796027 863.0287423359314 45.70489720712552 0.7722682573172118
1.2845596915206876 12.892791876668223 781.1042308670944 48.04405157617151 0.8089337725607422
1.3032265016548545 12.866022553511627 707.2460002042995 50.51041843817957 0.8460541841608721
1.3217209708367337 12.837481096396278 640.4331297247716 53.11191478590214 0.8837774819488124
1.3399971586201511 12.806958094497638 580.1152340715311 55.85576947894045 0.9222007079053801
1.358099370133669 12.774808120321662 525.5967331372309 58.74999414696546 0.9614328200402125
1.3759977875036464 12.740971652478986 476.37227887071947 61.803449231019236 1.001591897908731
1.3936568907855473 12.705388311763251 431.87794070559556 65.02591160668041 1.0428028786436296
1.411089642920112 12.668158367293083 391.73335753619546 68.42814649020491 1.0851949269853138
1.4282646909122925 12.629400083902787 355.40594055945354 72.01997217524665 1.1288455923175083
1.4451668682914545 12.589136215329772 322.62766430070275 75.81496390615511 1.173875799157127
1.4617337477574432 12.54702359703891 292.9772316500106 79.82515994524205 1.2202002392008284
1.4779974418492305 12.50366491882125 266.2501953452739 84.06589944927383 1.2684072266808946
1.4938562339890533 12.458457557667169 242.09555235223706 88.55216939783479 1.3187280308543314
1.5093355384233216 12.411817202685281 220.27767118701297 93.30061216706923 1.3713451466965878
1.524370599828346 12.363559405713945 200.58856216453052 98.32964549075885 1.4264601208603793
1.5389403473213639 12.313789623625025 182.82683998132347 103.65960615151835 1.484293865378964
1.5529971373724578 12.26239822877828 166.76711131821094 109.3129149110984 1.5450874989040602
1.566507652611984 12.209400337905873 152.27116427274626 115.31193512877154 1.6090690396908873
1.5794394134530678 12.154780145003494 139.1895240588141 121.6840163327529 1.6765293257958558
1.5917572086490148 12.098570755765548 127.36552434692837 128.45667815118807 1.7477474481569055
1.6034211343265783 12.040703841542868 116.67428872922099 135.66048414479653 1.823033040637276
1.6143965540234464 11.981122301508268 107.01956257051063 143.32929760956944 1.9027273692171018
1.6246490014083386 11.919885859406996 98.28255745053383 151.50057873289367 1.9872051277632437
1.6341501722527572 11.857008773017368 90.38655232316712 160.21494531656137 2.076866650632504
1.6428625906342562 11.792379567964847 83.23588867709833 169.5162852172913 2.172137892315245
1.6507604957668758 11.726017104047399 76.76006272049135 179.45309302265125 2.2734859040143744
1.6578074897526143 11.65803997804251 70.90191768920221 190.07932337129134 2.3814272365182374
1.6640005566920346 11.58824075943212 65.57727377928421 201.45261818132582 2.496503407824018
1.669295593526927 11.516813791864445 60.75740588872265 213.6389955239897 2.6193412227233077
1.673678363208382 11.44372657012359 56.38938300927477 226.7078154565207 2.7506051776153773
1.6771419736173205 11.368968232521437 52.41480075855356 240.7381662846386 2.8912555011524423
1.6796282825187634 11.292543958289992 48.81392311215981 255.81690886342255 3.0504635198531487
1.6811606743680354 11.214353686685463 45.5338994112751 272.0361043135301 3.1794007123450827
1.6817823764457436 11.134467205474506 42.53638038515818 289.4687787025992 3.2960247075012137
