M[M_sun], R[km], Lambda[1], P_c[MeV/fm^3], rho_c[fm^-3]
0.24162668629717493 15.618656898711224 2160425.4255784233 3.5677272577965504 0.1711233750220791
0.2536418000843296 15.277374325772431 1723245.820195815 3.784799391374867 0.17388792108753712
0.26603854757225276 14.981257412133813 1383074.2708314168 4.011358991217114 0.17666614761608643
0.2788114860598938 14.723578989810449 1116510.1038931466 4.247662777806875 0.17945675525027022
0.2919645482708033 14.498507721403904 905992.7082121655 4.494335601474436 0.1822663041578408
0.3054993551751912 14.301283445212723 738709.4696432011 4.751531158732374 0.18509046323634423
0.31941321720529586 14.128240680522396 605174.7116061152 5.019934861517294 0.18793592001145476
0.3337100531775529 13.97605316025709 497764.6081913595 5.29976643972958 0.1907992129845551
0.3483891274222573 13.842126291864762 411068.09737235535 5.5917594908214765 0.193686739764145
0.3634497805003513 13.724121908412183 340706.9679352134 5.896074991718555 0.19659344705626797
0.3789020769188265 13.620086923876455 283352.64767631504 6.213579586953725 0.1995270697101029
0.3947322139574118 13.528544771405564 236452.66662852504 6.544535098601905 0.20248386467443452
0.4109546042732322 13.447959119474367 197910.53115242728 6.889635083983347 0.2054673940162257
0.42756080762921433 13.377134662425954 166112.89831841423 7.249588441051974 0.20848080197881658
0.44455389139509177 13.314999358966725 139840.4177024627 7.624660508744294 0.211519737517468
0.46193236836348417 13.26064650990903 118011.56707290793 8.015787507351327 0.21459016563184732
0.47969402111271386 13.213236294005366 98772.36699343788 8.4236800868086 0.21769382760288503
0.49784927542135043 13.172054482237332 84664.57225309053 8.848787802646145 0.22082831784903667
0.5163850662406784 13.136462359578859 71957.49195799221 9.291966499326904 0.2239967985539091
0.5353012411429348 13.10589528968648 61293.787820688 9.75410883852882 0.2272023070718047
0.5546055650582798 13.079870391770616 52317.348807595314 10.236024071484453 0.23044619379845627
0.5742858284668282 13.057903018719076 44743.595701761165 10.738195435524515 0.23372531044620704
0.5943385665123324 13.039582046668498 38340.81489330648 11.261843372270024 0.23704554196616065
0.6147728654194354 13.024531886291285 32912.6923402348 11.807916505393163 0.24040864979029486
0.6355718770637154 13.012466905446056 28304.36924081675 12.377393409621675 0.24381626609628348
0.6567408525828179 13.003044334916138 24379.106678912536 12.970979664914095 0.2472665304051895
0.6782700512873292 12.995990861074066 21035.87201891555 13.589968671961 0.2507638567932108
0.7001551342117618 12.991076692875108 18179.897839401514 14.235573391743104 0.25431106188586605
0.7223855845733078 12.988005721442939 15735.274521332547 14.908982950174323 0.25791012922980633
0.7449703225500496 12.986648177206574 13639.963827987116 15.611247839991472 0.2615611669140169
0.7678868186832988 12.986763184360315 11840.492221018445 16.343592181253783 0.2652656528013904
0.7911291065068357 12.988134571742748 10293.408820029048 17.107651278595092 0.26902847952779646
0.8146993294838922 12.990660745284472 8960.636721322879 17.90487943664122 0.2728520782119495
0.838577465450498 12.994127453468339 7810.145483301099 18.736666003005098 0.27673774860847083
0.8627569648872268 12.998378900836249 6817.827218229636 19.604306629373994 0.2806855390488024
0.8872278446470699 13.003327319778624 5958.602647696873 20.50990937807984 0.28470201901987524
0.9119857495468108 13.008832057346638 5213.756431792715 21.455267383582026 0.28879019989641574
0.937002131155846 13.014709970017451 4567.4125778770185 22.44189521409616 0.29295025200853897
0.9622773051804765 13.020914919404815 4006.6426462109675 23.471756168223997 0.29718548125311794
0.9877983389140998 13.027306303747237 3518.3677606064907 24.54730083755146 0.30150222625654033
1.0135381073259113 13.033759562281707 3093.744334525686 25.6705072093133 0.3059023881442512
1.0394966680485027 13.040224229793797 2722.910578721672 26.84326341645329 0.3103866903924965
1.0656483185552026 13.046558762614588 2399.4838079792758 28.068699395472024 0.31496412674495083
1.091974352127997 13.05267753713658 2117.0289054602017 29.348911108808228 0.3196354297319957
1.1184685853036131 13.05851299820706 1869.6092743104198 30.686569875303633 0.3244047116531818
1.145095175637064 13.063968803987308 1652.8761314171547 32.085161151225954 0.3292806131687532
1.1718557361456934 13.068984906410222 1462.9584761402934 33.5465308069922 0.33426021800037753
1.1987076713020526 13.073445418821958 1296.16111185435 35.07526403594496 0.3393573877155059
1.2256514164153969 13.077316501817176 1149.6976688008865 36.67343785676557 0.34456921732603646
1.2526431353592122 13.080484853934465 1020.7784754878961 38.34600213118611 0.34990952974471046
1.279682943310235 13.08292105604534 907.2544441016015 40.095281529036384 0.3553754224718069
1.3067244525266721 13.084518140457781 807.229721017903 41.92671756666191 0.36098128357823006
1.3337585448618632 13.085230882772874 718.9929033892677 43.84370824303041 0.366728580877799
1.360762845329937 13.085036480983616 641.0038109992169 45.8510807845985 0.37262584888617317
1.3876926136338124 13.08378609436145 572.1751475030941 47.95409495325016 0.37868264811699165
1.4145466514656577 13.081500064018691 511.13499114214966 50.15741908077391 0.3849041922212429
1.441268349242607 13.078059349672344 457.1347077139417 52.46643388047389 0.3912982995852406
1.4678611365603178 13.07346476072531 409.27366016875817 54.887469484564896 0.3978762288731018
1.4942678730115413 13.067605577238373 366.7620645314514 57.4267103292528 0.40464703199894186
1.5204781728494807 13.060471943891827 329.04749745038293 60.090778473561095 0.4116204702162606
1.5464608980782302 13.051994805569969 295.48453307685287 62.886772990039454 0.41880707251057
1.5721756206067539 13.042125665726095 265.63900387465685 65.82231312613058 0.4262181987574977
1.5975985908708927 13.030808910228673 239.07653298956097 68.90558561887403 0.4338661082041509
1.622679569927414 13.017975447164675 215.37700216370476 72.145396593196 0.4417640338998338
1.64743766518335 13.003672311154158 194.227569294753 75.55122852796481 0.44992626377786865
1.6717864694454254 12.987752503197758 175.3486983112372 79.13312564067992 0.45836748916844333
1.6957252751519107 12.97021696214069 158.46996887165864 82.90104192403844 0.4671000070923295
1.7191870673915983 12.950977931468016 143.3838087678191 86.8678141953937 0.4761458216488824
1.7421933517253632 12.930097476209829 129.86977558538402 91.04514575036826 0.4855198023171163
1.7646742689422943 12.907461462270446 117.75837414439384 95.44684234893612 0.495242769187332
1.78660267724967 12.883042287531602 106.89258938714876 100.0868394208371 0.5053333299547677
1.8079432507675743 12.856801996385046 97.15209721951479 104.98150791735426 0.5158166129904181
1.8286566873887657 12.82868662283847 88.39274428943848 110.14731984491998 0.5267149378975399
1.8487387309721741 12.798737585024632 80.51864165278855 115.60188412903 0.5380516477639469
1.86812842490985 12.766851774556331 73.433244689589 121.36554667648727 0.5498566246564057
1.886802682393759 12.733021474906266 67.05388856004583 127.45960451634014 0.5621592520788227
1.904729608417123 12.697228190345749 61.30028337534073 133.90664728656208 0.5749894068603697
1.9218764610510457 12.659431993763883 56.112350585970596 140.73197871277898 0.5883820992017987
1.9381947764465226 12.619563286697785 51.427069369505574 147.9634235670694 0.6023761886296984
1.9536989005408867 12.577751941701466 47.19802417963848 155.62965659850732 0.6170081095115488
1.9683207658614696 12.533840243527107 43.36856057447211 163.7640472996742 0.6323245797215429
1.9820449263410191 12.487867442244275 39.90475503601034 172.40023759938404 0.6483668067728807
1.9948393481063724 12.439812680497827 36.77012355573997 181.57777115964006 0.6651889068523654
2.0066780608083894 12.389663368562253 33.927106293898746 191.33843248273868 0.6828446648452072
2.0175393408961018 12.337430747622786 31.34877448796504 201.7281984288374 0.7013932392431368
2.0273835978358394 12.283073805049469 29.011554719036255 212.79719234002278 0.7208980012675015
2.036202980051253 12.226632267996987 26.88752046322099 224.6003602437839 0.741427648081927
2.043957393211865 12.168065150393643 24.958321747054487 237.19926797265876 0.7630607878433614
2.050627227636663 12.107388697945218 23.20288498688067 250.66028700992 0.7858785787758491
2.0562044768513768 12.044649187334933 21.607290873897124 265.0566840732536 0.8099699229378158
2.0606704523210566 11.979848483656609 20.155794684835612 280.47032422229927 0.8354351449859954
2.0639912541442205 11.912995489433982 18.833545312801785 296.99023306785983 0.8623791715706552
2.0661588499540477 11.844110795851222 17.629049106781256 314.71691419477906 0.8909231863500254
2.067164240341432 11.773249873112027 16.533296060709414 333.7598911050815 0.9211937705867203
