M[M_sun], R[km], Lambda[1], P_c[MeV/fm^3], rho_c[fm^-3]
0.24162668629717493 15.618656898711224 2160425.4255784233 3.5677272577965504 0.1711233750220791
0.25364404896732484 15.277260630682184 1723052.7570647413 3.784821994702759 0.1738882028271151
0.2660407843667723 14.981243150296171 1383004.366650087 4.011406507817372 0.17666672182615817
0.2788155748434966 14.723484216271052 1116429.1124950638 4.247736815130796 0.17945761397165585
0.2919701110096124 14.498417906340299 905897.0823523998 4.494438102204563 0.18226744552725996
0.3055058676074518 14.301194098032637 738609.8335913118 4.751665603110202 0.1850919154922157
0.31942160339146664 14.128142121633646 605102.7384619428 5.020102239771917 0.18793765662544856
0.33372148565187654 13.975949464444405 497679.01518997597 5.299971158308419 0.19080127416095446
0.3484012001293146 13.842025966279138 411005.89070640865 5.592002060729852 0.1936890866947372
0.3634645439777853 13.723968418073154 340644.73756591306 5.8963608624251505 0.196596132014441
0.3789172230147157 13.620004428024188 283296.2997613408 6.213912217700678 0.1995301029020016
0.39474909795778323 13.52846883322644 236407.86424557725 6.544914143907687 0.2024871883897011
0.4109751932935933 13.447860466190741 197873.82775174477 6.890067861015124 0.20547107972703615
0.4275815003043602 13.377076264368586 166081.3915193463 7.250079010685829 0.20848486033567523
0.4445778068574616 13.314927569066688 139796.89328088248 7.625207514981322 0.2115240920388386
0.4619593552285176 13.260570337458784 117980.30582913666 8.016400490905157 0.2145949075552121
0.4797238844977753 13.213155646079468 99810.14135618933 8.424363827323843 0.21769896837570793
0.4978818673883224 13.17197886111047 84640.44815705712 8.849539778971515 0.2208337624789271
0.5164195879666543 13.136402288482486 71938.15540141433 9.292798880271066 0.22400265856764892
0.5353377126864546 13.105848251771917 61276.419007855606 9.75502726747531 0.22720859512252511
0.5546450327598702 13.079821879711995 52298.97461956773 10.237034534715704 0.2304529230893934
0.5743280141764044 13.057837104325305 44731.30652338157 10.739293542533751 0.2337323606333573
0.5943844443499346 13.03954689412395 38330.1098688957 11.263045636249174 0.23705305373325894
0.6148207703941029 13.024518535062318 32900.35042819101 11.80923002825495 0.24041663820085904
0.6356255067726096 13.012435163796482 28291.895574695034 12.378825736328256 0.24382474700899603
0.656793823412305 13.003039951494312 24370.351619875564 12.972524218026757 0.24727535843740767
0.6783295654969554 12.995979145122682 21027.745841127915 13.591647383400197 0.25077320340875053
0.700215978016307 12.991053302613746 18171.77953325355 14.237395261851791 0.2543209456201221
0.7224505930165277 12.987995514992795 15729.879826892784 14.9109575575581 0.25792056972337823
0.7450373715149078 12.986655581394615 13633.736319257141 15.613366113395339 0.26157199412255117
0.7679586469316656 12.98675970393209 11836.564580168011 16.34588280497635 0.2652770709861391
0.7912034182732866 12.988136442891777 10288.912937018466 17.11012574797302 0.26904051203445567
0.8147776667372845 12.990665721647712 8897.892639329164 17.90755000910329 0.27286474988732695
0.8386595339260179 12.994124118572826 7807.273489224204 18.739520833845095 0.2767508650790515
0.8628413205672093 12.998402526715804 6814.70033667446 19.607382836115775 0.2806993400483907
0.8873211959504462 13.00335161785537 5955.402246392895 20.513221765319038 0.2847165344143512
0.9120767558563244 13.00885033888866 5180.428248895898 21.458831769651034 0.2888054615653634
0.9370972197914618 13.014741057772113 4565.192904046154 22.44569675164566 0.2929660414312524
0.9623804696317605 13.020947382662007 4004.581617605728 23.47584256069951 0.29720207730714654
0.9879008000710505 13.027329609060388 3516.5504494437187 24.551691317689244 0.301519667549869
1.0136432068028327 13.033789642848637 3091.83400148339 25.675184782943663 0.3059204398017406
1.0396072118828903 13.040241380414173 2721.510109582773 26.848285263794246 0.3104056620274689
1.065757274878401 13.046577013410378 2398.271837051046 28.074089021645115 0.3149840653157542
1.0920897052136809 13.05270039294588 2115.7835841994743 29.35464941304339 0.31965608410390556
1.1185885322318279 13.0585358979673 1868.5979513377886 30.69272536186747 0.3244264255309013
1.1452180714548466 13.063993824179686 1652.0880822489082 32.091713731061894 0.3293031271876663
1.1719819749421485 13.069003690034823 1462.0786920499934 33.55355733484044 0.3342838981236914
1.198838171261429 13.07345936551612 1295.5224305127174 35.08279767238884 0.33938229940885234
1.225782510730836 13.077329402483526 1149.0456987268803 36.681456741201416 0.34459508500592984
1.252779066662696 13.080491850686876 1020.1597244248346 38.35458864609844 0.349936703306204
1.2798207689082741 13.08293857515603 906.712924226995 40.10443300882671 0.35540373409296633
1.306865126527528 13.084518813429717 806.7359790116027 41.93646196550211 0.36101074237219394
1.3339013905952317 13.085234876952113 718.5916787178829 43.85415480159756 0.36675963345242285
1.3609087721248174 13.085034580578565 640.6010059239422 45.86220761557118 0.37265820419917595
1.3878406167767843 13.083772938165232 571.8062991921117 47.96594957814372 0.3787163902061949
1.4146975040605774 13.081483502573752 510.8206033378283 50.170131476446464 0.3849398137548523
1.4414211026436559 13.078030328956 456.8786940437726 52.479983868057595 0.3913355027744038
1.4680150948127582 13.073435488540419 409.0142588173329 54.90191705600375 0.39791511913707617
1.4944239547873848 13.06757001427213 366.5294590751059 57.44212033562739 0.4046877229059378
1.520635645836553 13.060423766969748 328.8322649070231 60.10722106011103 0.41166308415259334
1.5466193848836616 13.051939052100556 295.28604097296835 62.90432407459138 0.41885174141612774
1.5723351745380947 13.042060000066211 265.45619716150935 65.84105492576245 0.4262650649346339
1.597759633386045 13.03073165172478 238.91702318332304 68.92560723023945 0.43391532520795795
1.6228461973874626 13.017911246956627 215.23924053728106 72.16679463259443 0.44181576751869206
1.6475990336898514 13.003572182394256 194.09548818466035 75.57410783800118 0.44998069311424405
1.6719472780058802 12.987639297668979 175.23384983965568 79.15748061886201 0.4584243090539031
1.6958843760574718 12.970091630817828 158.36562111434017 82.9271101631881 0.4671599118299724
1.719364882690477 12.950880588916656 143.2773942433313 86.89572987172453 0.4762090369209977
1.7423475010892573 12.929940600796659 129.7833973142696 91.07492048417768 0.4855860401401567
1.7648297846147272 12.907296988062036 117.67688283187249 95.47876293483812 0.49531281008032146
1.7867573827105114 12.882857881465796 106.82000516137052 100.12093365187839 0.5054069038262184
1.808095791899278 12.856606922196931 97.08281171426117 105.01795256860905 0.5158940032837487
1.828806231239948 12.828473667275098 88.3302552150118 110.186359559708 0.526796644091251
1.84888640317082 12.79850838346938 80.46156738878648 115.6437850100887 0.5381382005253317
1.868263247224868 12.766570158625386 73.38665445289557 121.41043677843105 0.5499480044535762
1.8869430704875407 12.732753080161185 67.00755668689885 127.50773583733289 0.5622558512560086
1.9048651622511 12.696941178448148 61.25575565873544 133.95811867453264 0.5750910273619477
1.9220081786193624 12.659124479833702 56.07493908869695 140.7872625820257 0.5884898132024844
1.9383223683315942 12.619240174889757 51.3918287536332 148.0228509380512 0.602490500134478
1.9538194283254913 12.577397765387731 47.162624873016995 155.69339533670436 0.6171289008007698
1.968443903647701 12.53349832040873 43.33839316917594 162.87866750451238 0.6306021511178951
1.9778637272973412 12.490677898629938 40.5636639377749 173.3264166640824 1.1486122650523722
1.9801146186182181 12.444137174266627 38.77929345127806 184.6052652067046 1.576035507410103
