M[M_sun], R[km], Lambda[1], P_c[MeV/fm^3], rho_c[fm^-3]
0.24162668629717493 15.618656898711224 2160425.4255784233 3.5677272577965504 0.1711233750220791
0.25364466138068054 15.277255492757103 1723180.7521325022 3.784831645592367 0.1738883231207983
0.26604051472138146 14.981271478945919 1383103.702746022 4.011426795990807 0.17666696699676085
0.2788166001044109 14.72347450001032 1116430.2288946877 4.247768427048146 0.17945798062225896
0.29197210690452857 14.49839537685668 905864.2278571819 4.494481867468862 0.18226793286363532
0.3055078133084294 14.301182597842473 738608.9513874385 4.751723007849444 0.18509253557295813
0.31942506323493397 14.128117213311667 605050.2865570249 5.020173706929173 0.18793839812478888
0.33372405657053356 13.975939669217233 497659.2461296859 5.300058569526847 0.19080215424688257
0.3484063886081229 13.841982187345677 410978.6210753235 5.5921056343409505 0.1936900887979167
0.3634701068748734 13.723938999595461 340642.59575119056 5.896482925480544 0.19659727845648856
0.3789246481797908 13.619953273447576 283285.44480935077 6.214054247457154 0.19953139804236572
0.3947572787805293 13.528400974490355 236383.9624920098 6.545075992988897 0.2024886075874959
0.41098340803277295 13.447847742985646 197849.1325088753 6.890252654069131 0.20547265350222949
0.4275929724346403 13.377024085857125 166071.77763969297 7.25028848192906 0.20848659323758761
0.44458863297247847 13.314907327782613 139784.87606164315 7.625441085537203 0.21152595141064875
0.46197109137033626 13.2605301641472 117969.60237975135 8.016662235010656 0.21459693235747918
0.47973723279346386 13.213114472453785 99803.63853269015 8.424655786186603 0.2177011634982049
0.4978947880083934 13.17197268191784 84630.62148543981 8.849860876160049 0.22083608735976637
0.5164347448663512 13.136373496778758 71930.59240733285 9.293154312410271 0.22400516083206753
0.5353542497564975 13.105819653557267 61266.28880810224 9.755419444685861 0.22721128017530004
0.5546613856695409 13.079806231230478 52297.57997959225 10.23746601357621 0.23045579657028392
0.5743460369891396 13.057819965945747 44321.63322884461 10.739762448302715 0.23373537115364287
0.5944021416702812 13.039517975084335 37988.59139080729 11.263559020977727 0.23705626137033328
0.6148419794137462 13.024486933475202 32897.149440164685 11.809790925028405 0.24042004938907727
0.6356481240981721 13.012418205452665 28287.899556276694 12.379437367469176 0.24382836852236628
0.6568194629811379 13.003005365275618 24366.525295400454 12.973183774811456 0.24727912819352502
0.6783525688209014 12.995969367485964 21024.515027370453 13.592364232227094 0.25077719463096343
0.7002415909780644 12.991048598357734 18169.138852789103 14.238173246675597 0.2543251662257608
0.7224767903721946 12.988008538594823 15726.098208034844 14.911800769328519 0.2579250281018595
0.7450665803313684 12.986639226831764 13631.636812920658 15.614270678287683 0.26157661765825924
0.7679884782170764 12.986760130829396 11833.846034516184 16.346860973442123 0.2652819469106079
0.7912347328439061 12.988139909521736 10287.201105176197 17.111182429666002 0.2690456503197062
0.8148092953392319 12.990668742840848 8954.38872626415 17.90869043919895 0.2728701611465862
0.8386952810873025 12.994126570627698 7756.425274649578 18.74073995392366 0.2767564663050228
0.8628765696995956 12.99841186348863 6812.800541443146 19.60869649872573 0.28070523362403793
0.8873597910765134 13.003355784967402 5954.09704977866 20.5146362936465 0.2847227330968082
0.912115697902036 13.008854251754732 5210.075754870164 21.46035391990242 0.28881197897194494
0.9371376649939829 13.014742930907296 4564.282628711245 22.447320182843132 0.2929727842402051
0.9624226226941477 13.020961415134341 4003.6129746461643 23.47758764713111 0.29720916462166097
0.9879446501533162 13.027340498964492 3515.7757877859344 24.553566274045476 0.3015271158613887
1.0136878236264502 13.033796862414711 3091.416384040169 25.67718235118542 0.30592814880229546
1.039653040824666 13.040254571663406 2720.779586235407 26.850429866312016 0.3104137639496034
1.0658060596304453 13.04658197226827 2397.616566249572 28.076390698142337 0.31499258021796306
1.0921383620699712 13.052719018839245 2115.138349791423 29.357100005550357 0.31966490473225917
1.1186381315452583 13.058549995900119 1867.8738437131105 30.695354130088134 0.32443569868113964
1.1452702471515521 13.064002234178163 1651.7038963628604 32.09451209477345 0.3293127420897515
1.1720352897195172 13.06902068313414 1461.657254981896 33.556558120927754 0.33429401108219964
1.1988924506802832 13.073470538474709 1295.0875464929038 35.086015045149594 0.33939293838834045
1.2258403381161243 13.077338068825194 1148.7794291027865 36.68488136351558 0.3446061323073952
1.2528362127560497 13.08050460923826 1019.884333339133 38.35823441698787 0.34994818348922735
1.2798794936367157 13.082943033758664 906.487827312006 40.10834136949251 0.35541582525516735
1.3069244605727188 13.084522130896815 806.5931643529972 41.940623566685666 0.36102332352305166
1.333963626297101 13.085234608627948 718.4192175279396 43.85861630541949 0.3667728953491015
1.3609721907587333 13.085031276402889 640.4600545959828 45.866959673072216 0.37267202253687076
1.3879038663641934 13.083769534549614 571.6569994816034 47.97101248833037 0.3787308008829291
1.4147550365453923 13.081461487777126 510.6949902612164 50.175560760300854 0.3849550272065318
1.441485650291527 13.078025396592967 456.75445092285366 52.48577090612753 0.3913513918127281
1.4680805714290088 13.073422622459718 408.90227963042764 54.908087474717206 0.3979317287945272
1.494490832926145 13.067554541531246 366.4382374851004 57.448701837287906 0.40470510169641016
1.520703415583502 13.060402851776088 328.7416790421786 60.114243608767474 0.4116812843573136
1.5466871030578733 13.051915959750888 295.2093310359072 62.911820100453966 0.4188708193979085
1.5724033164148923 13.04203205478194 265.3876443569714 65.84905955023254 0.42628508148350824
1.5978173908194488 13.030691746379091 238.8505077708317 68.93415851386831 0.4339363459215876
1.6229160425398022 13.017871796405228 215.17228066120597 72.17593384857337 0.441837863221355
1.6476663713590292 13.003530664798255 194.04090859697726 75.58387977410896 0.45000394031866603
1.6720163295441972 12.987595109316102 175.18157952356114 79.16788288058002 0.45844857741148165
1.695953996548421 12.970035852445433 158.32480908594508 82.93824424997895 0.46718549792899006
1.719433276863266 12.950821602473896 143.23832829020844 86.90765310403168 0.47623603717583146
1.7424111713044548 12.929866499762595 129.73862521889478 91.08763782476488 0.48561433154187844
1.7648967172593573 12.907225055525894 117.64369454159682 95.49239690588075 0.49534272605710683
1.7868236513228195 12.882784276843115 106.79550089930011 100.13549612521784 0.5054383290119099
1.8081615037731504 12.85652192438629 97.05723715758853 105.03351906457272 0.5159270587705562
1.8288702870017006 12.82838178530116 88.30365621582351 110.20301245307827 0.5268314608614895
1.8489494484328155 12.798408257970204 80.44108441353707 115.66168227111123 0.5381751700907342
1.8683240951317421 12.766465119592194 73.36553031784217 121.42961097219454 0.5499870360855205
1.8870036986363519 12.732639249046814 66.9903853150125 127.52823802582225 0.5622969103816201
1.904924258604687 12.696818322671163 61.24002594505368 133.9801042837727 0.5751344337810587
1.922064043370495 12.658994714439833 56.05740252400699 140.81087684954576 0.5885358227756655
1.9383767797239022 12.619101782470034 51.37664447193149 148.04823529105389 0.602539328200429
1.953871534453853 12.577252151833903 47.14994947088272 155.7206214909622 0.6171804970884649
1.9684862082738113 12.533314142303476 43.32739307299854 163.8617573018494 0.6325071645989117
1.9821992359558918 12.487307093275195 39.86831188510417 172.50551046724016 0.6485611816130797
1.9949855862139425 12.439225085937743 36.735022162643396 181.69102922763918 0.6653952079936378
2.0068201999872914 12.389058489497826 33.89298226497939 191.46041117996 0.6830639474121164
2.017665601209954 12.336776431653973 31.31872541349542 201.8597090159143 0.7016266575627486
2.0274989257309723 12.282386543043993 28.982588654082853 212.93879909773526 0.7211457338180562
2.036307469831239 12.225910620407884 26.86208165612409 224.7533737605301 0.741692135588358
2.0440487533176817 12.167310738273194 24.934644647446557 237.3644336431274 0.7633424104838874
2.0507064304210543 12.10659588415249 23.181560946423975 250.8389665239234 0.7861794935711384
2.0562766424612393 12.043841454672537 21.587683609368213 265.25023159739436 0.8102919972628602
2.0607195547357677 11.978985586928243 20.136164365137283 280.67964389800346 0.835778477972878
2.064022607291794 11.912084452809303 18.816445221808547 297.2173287054686 0.862747107194831
2.0661806686268993 11.843174498326025 17.6145217727788 314.9636092218549 0.8913180965671964
2.067170265770498 11.772273375912834 16.51990923822415 334.02781247440385 0.9216169309881569
