M[M_sun], R[km], Lambda[1], P_c[MeV/fm^3], rho_c[fm^-3]
0.24162668629717493 15.618656898711224 2160425.4255784233 3.5677272577965504 0.1711233750220791
0.25363981910734834 15.27741282640702 1723293.3205327524 3.784760047616457 0.1738874306865686
0.2660327091684155 14.981410486565688 1383106.6366583453 4.01127628392981 0.17666514814732986
0.27880415155101324 14.723719645783047 1116607.4843502569 4.247533910053093 0.17945526057852593
0.2919551397705396 14.498629297167371 906113.8112705012 4.494157192885713 0.18226431753679892
0.3054860100363403 14.301471422890714 738822.4085335925 4.7512971529274255 0.18508793552704397
0.3193979724488443 14.12840642674933 605243.0602044347 5.0196435360384655 0.18793289739717062
0.3336913171721686 13.976224552235552 497866.3754028811 5.299410126457353 0.1907956255011344
0.348367667580316 13.842255170156692 411172.6004148673 5.591337301455217 0.19368265496588613
0.3634258603301523 13.724281720903491 340815.46405682893 5.895577443201497 0.19658877397530328
0.3788724547607506 13.62030178746336 283445.03791672824 6.213000660198816 0.1995217905951713
0.3946993430035025 13.528740665171778 236527.22716461163 6.543875396002029 0.20247807997384817
0.41091969071242024 13.448124295750793 197989.75642856036 6.888881872703717 0.20546097935289553
0.42752049040955376 13.377312096680223 166204.3509267965 7.248734655427825 0.20847373882915451
0.4445103780720861 13.315173788309844 139897.65843303662 7.623708509764044 0.21151215899345185
0.46188536250894907 13.260781102692762 118064.3655978368 8.014720693451777 0.2145819129638523
0.47964378946494923 13.213351853917256 99882.43096571468 8.422490142008442 0.21768488088150015
0.49779390141113006 13.172168581600772 84710.32444001574 8.84747911545145 0.22081884239458804
0.5163257668022947 13.136560253278603 71992.58990932103 9.290517895827831 0.22398660029496573
0.5352358970430832 13.105994319929481 61327.10003062208 9.75251050027911 0.22719136400209744
0.5545367185710255 13.079951584211063 52348.76253986956 10.234265583581704 0.23043448295501232
0.5742085856622732 13.057949092208505 44770.436999648446 10.736284439090232 0.23371304125714631
0.5942615026029663 13.039643596768157 38362.98921005766 11.259751135514355 0.2370324696330495
0.614688904451412 13.02458713049051 32656.083196359723 11.805630672848126 0.24039474811459366
0.6354823278225444 13.012510753440807 28322.652052749094 12.374900855183178 0.2438015074964982
0.6566452395545709 13.003079930578012 24396.436847008747 12.968291834491529 0.24725116786869086
0.6781689178691915 12.99602562506255 21050.34122799517 13.587047407507889 0.2507475919753895
0.7000493549100958 12.99108529220605 18192.27095195554 14.232403035705504 0.25429386254963277
0.7222737023551546 12.988017056425157 15746.477439117103 14.905546839212523 0.25789196121589947
0.7448522503841696 12.986655074682709 13553.317946100564 15.607561758274546 0.2615423261093546
0.7677636351806985 12.986750311260108 11849.780442185334 16.339606225297768 0.26524578381066194
0.7910000176611723 12.98811931798653 10301.43657131249 17.103345451282404 0.2690075417476503
0.8145654124078274 12.990631590830375 8968.066502383519 17.90023241538499 0.2728300284283667
0.8384382408191284 12.994098497355495 7816.923994899618 18.731698396197064 0.2767149250254967
0.8626096387593716 12.998359426648998 6823.253245405916 19.598953865326568 0.28066152457233323
0.8870749671504743 13.003295303334841 5963.2103887771955 20.50414570410378 0.28467676170684036
0.9118253914064356 13.00879205231948 5217.98050983003 21.449065283927755 0.2887636443017435
0.9368360141887946 13.014676356163251 4571.403521826997 22.43528051948821 0.29292277833297353
0.9621043673559677 13.020875315571894 4010.167589640655 23.464645895747935 0.2971566043239249
0.9876198018018889 13.027266035982342 3521.4887742517267 24.539661533322942 0.3014718789273884
1.013357597120137 13.033726383192846 3096.582022441292 25.662368437421083 0.30587097905608013
1.0393078849315045 13.040170893049796 2725.4107334595046 26.834525712838786 0.31035368092163523
1.0654520063998474 13.046506469463603 2401.7327075034896 28.059321876254494 0.3149294352237073
1.0917715728541304 13.052627486585274 2118.8294744493733 29.338927001104242 0.3195994930745348
1.1182601196026893 13.058466943295864 1871.41399338281 30.675860022293968 0.32436693195270905
1.144882482465516 13.06392771323349 1654.5713425085564 32.07373366911582 0.32924126809585486
1.1716358976898886 13.068949103278905 1464.4462824189557 33.53430567584572 0.3342190180479501
1.1984828524731759 13.07341406867 1297.4791991753195 35.062156752354824 0.3393140454820659
1.2254212612840327 13.077286185235298 1150.8411701934706 36.65948644547662 0.34452421223285035
1.2524084267958628 13.08045808914458 1021.914914619679 38.33104613808567 0.34986215243724794
1.2794423945137179 13.082906880383744 908.2206047916189 40.07935992882257 0.35532616635980835
1.3064782953937137 13.084510110432838 808.0865376909261 41.90976457250614 0.3609300321085298
1.3335074888722052 13.085226386454332 719.8142075666533 43.825533864246474 0.3666745572249566
1.360505112389434 13.085048983608711 641.7406468724864 45.8317230890607 0.3725695593370934
1.3874339145275254 13.083800360425274 572.7877070251438 47.933471293453756 0.37862394652374887
1.414283089662243 13.081528085104384 511.70563807343376 50.135303412814366 0.38484222168242327
1.441009521034091 13.078113512120465 457.6644409218055 52.44286129887167 0.391233578108044
1.4675914085034663 13.073517715136145 409.7294285702567 54.86233565865354 0.3978085731339685
1.4939964680515196 13.06767292615295 367.19828852483386 57.39990247971254 0.4045762445063292
1.5202046580101711 13.060554850303618 329.42019850772874 60.062174616213724 0.41154633814755176
1.5461841888992776 13.05209335850193 295.8217190175103 62.856241104211136 0.41872936643374437
1.5718986366545356 13.042242155048614 265.9693422484482 65.78971023918348 0.42613667122519955
1.5973144346692385 13.030932071224548 239.3469733725168 68.87075679748948 0.4337804922063478
1.6224064344405973 13.018152370624193 215.618109335211 72.10817383082976 0.4416740411595995
1.6471585821666885 13.003842329577811 194.4610603082226 75.51142951658915 0.4498315828729754
1.6715118520302685 12.987945922217373 175.55756766906887 79.09072960787631 0.45826852346532176
1.6954473335468405 12.970433498485159 158.66795459316953 82.85569675216581 0.46699580401943275
1.7189118969377946 12.95122501904037 143.55329140822772 86.81925607651283 0.4760358614006663
1.7419264265495613 12.930380507409268 130.02794161059649 90.9933544679261 0.4854045857773683
1.764405735417495 12.907762892838818 117.90382801638953 95.39131925187901 0.4951209391146836
1.786333485582451 12.88335904097764 107.02590785477025 100.02753617204462 0.505205356116672
1.8076757435865625 12.857139750766365 97.26856361674669 104.91811715602647 0.5156820025758664
1.8284027482267518 12.829086597187127 88.49592412817081 110.07923827500228 0.5265721600591536
1.8484821761148253 12.799138261652814 80.61718359579727 115.52900500790248 0.5379011046483487
1.8678780735681046 12.767285100898539 73.5214222678247 121.28746940910526 0.5496976879521425
1.8865582211616163 12.73348933997056 67.13484146882408 127.37589098907138 0.5619912396975563
1.904491984724548 12.697721442360177 61.37308950815827 133.8171256175199 0.5748126632894489
1.9216470263948127 12.659964938092358 56.17992311357867 140.6358276363483 0.5881947603405054
1.9379809411292184 12.620158178606344 51.490215332137396 147.86006762404165 0.6021773783310057
1.9534793281277212 12.57832158015507 47.254070042483455 155.51880393273055 0.6167980326133935
1.9681177126693414 12.534478957612981 43.42009405996099 163.64467835643205 0.6321010692501207
1.981853085818206 12.488544369865613 39.95333973530325 172.2719535613267 0.6481299443228944
1.994658104629383 12.440525489156732 36.81336185568529 181.43975904410055 0.6649375158702638
2.0065110032434914 12.390419542601114 33.96642526379844 191.18979660892995 0.682577460352242
2.017384646536999 12.338226072025535 31.38670695943714 201.56795079148904 0.7011088154939694
2.027242171078288 12.283910133794016 29.045398491645205 212.62464566625223 0.7205961411848795
2.0360748269232456 12.227514123464251 26.91797904517825 224.41391856509432 0.7411053792017651
2.0438453667276626 12.168991935203337 24.98664901668139 236.99802350101518 0.7627176475325771
2.050532289494048 12.10835882073775 23.228940880070137 250.44235020906248 0.7855111865917983
2.0561256529008047 12.045656566721094 21.63168810539331 264.820868818722 0.8095775126536976
2.0606056534328676 11.980903241102638 20.17757264647833 280.2148929368028 0.8350155198120599
2.0639478033246466 11.914095613751009 18.853978124327078 296.7135561656885 0.8619309054138619
2.066132523149279 11.845255756346132 17.648520423190696 314.41636645145354 0.8904420685261528
2.067157169715028 11.774440840874522 16.55107418495575 333.4334915525201 0.9206782485660617
