M[M_sun], R[km], Lambda[1], P_c[MeV/fm^3], rho_c[fm^-3]
0.24162668629717493 15.618656898711224 2160425.4255784233 3.5677272577965504 0.1711233750220791
0.25364504118451914 15.277268337208318 1723277.7201334143 3.784839400425563 0.17388841978105304
0.266041824323005 14.981221596997157 1382982.311298838 4.0114430983132285 0.17666716400070637
0.27881789475565866 14.723456978542742 1116399.4783570764 4.2477938285114485 0.17945827524095406
0.2919738167109383 14.49836253792979 905843.7582997691 4.494517034749527 0.18226832445946742
0.30551109867309034 14.30113680921695 738596.262811265 4.751769135181145 0.1850930338361758
0.3194282871162873 14.128059322921542 605024.2464487081 5.0202311342255665 0.18793899395515384
0.3337262445379986 13.975956304099764 497683.8743627863 5.300128808856134 0.1908028614403804
0.3484105783197056 13.841946650242217 410956.8568471174 5.592188861204724 0.19369089404071863
0.36347499796884153 13.723937918578564 340621.2676450606 5.896581009879757 0.19659819968592285
0.37892994281424197 13.619919641833942 283263.03040658316 6.214168376538333 0.1995324387621657
0.3947637687930047 13.528366815932301 236369.88147695965 6.5452060483876 0.2024897479976463
0.41099033087828035 13.447795832988504 197834.4983334888 6.890401146748365 0.20547391812819837
0.4276014860281153 13.376967382110665 166053.49134299654 7.250456805546859 0.20848798573574
0.44459734134160395 13.314855875546089 139771.09644670272 7.6256287749850715 0.21152744553933772
0.4619803458286186 13.26050458048527 117960.57433797428 8.016872564369642 0.2145985594251149
0.47974753873284454 13.21310324629726 99790.84657890855 8.4248903958366 0.21770292743479458
0.4979059101192228 13.171931042061242 84625.04739719334 8.850118901158122 0.22083795557099803
0.5164460530522335 13.136355587839008 71923.59316748189 9.293439928835914 0.22400717158951017
0.5353674884126635 13.105795157924366 61259.92261982104 9.755734589407744 0.2272134378228819
0.5546761076273329 13.07976150339244 52291.784082165505 10.237811623812101 0.23045809127372135
0.5743604987406894 13.057816640539247 44718.20901656568 10.740139252286033 0.23373779035193504
0.5944193798538298 13.039500238591804 38318.83942471995 11.263971568555233 0.23705883897506314
0.6148584869467231 13.024479348554664 32893.030750007245 11.810241653738279 0.24042279057165752
0.6356652359212382 13.012412953984603 28283.893439234405 12.37992886693874 0.2438312787271963
0.6568380270848042 13.002997917967958 24363.580441743128 12.973713787970684 0.24728215753140104
0.6783713614347372 12.995968183272792 21021.050062210175 13.592940286255105 0.25078040194545725
0.7002629208090982 12.99105430353724 18166.663720558427 14.238798430803588 0.2543285578801672
0.7224996280092011 12.98799840116439 15724.1779400874 14.912478371298524 0.2579286108388989
0.7450891243476138 12.986641144464118 13628.961882956233 15.614997585043401 0.26158033312341816
0.7680128189823376 12.98675633937999 11832.190491769485 16.347647030038317 0.2652858652055901
0.7912601645552592 12.988139182309544 10286.406779419582 17.112031581842057 0.2690497794591913
0.8148377353866001 12.99066974994333 8953.301308287493 17.909606894320493 0.2728745096606083
0.838722293600218 12.994134525300096 7805.078800842018 18.741719646887436 0.2767609674872846
0.8629055162283725 12.998417178812371 6811.690113587055 19.609752169599172 0.2807099697534703
0.8873882486948068 13.003383738963041 5953.188968797744 20.515773024246762 0.2847277144265514
0.9121487355271929 13.008854066940627 5209.276475658526 21.4615771400753 0.28881721644649655
0.9371705003758755 13.014752674739663 4563.558660096943 22.448624796675826 0.29297820286333165
0.9624554205041689 13.020969066183097 4002.9546489840022 23.47899002889137 0.2972148601106776
0.9879791334453658 13.027349837215096 3515.199080072889 24.555073025802038 0.3015331014708289
1.0137240615866752 13.03381321534219 3090.596770826889 25.678787639944133 0.30593434392077645
1.0396908204366098 13.04027165584988 2720.326455826643 26.85215331992744 0.31042027484702095
1.0658442048113543 13.046594665547183 2397.1969002929814 28.078240385511723 0.31499942301584816
1.0921792918178903 13.052727038608776 2114.762207783167 29.359069370345075 0.319671993236324
1.1186792228895832 13.058557357055824 1867.5707434440583 30.697466688118563 0.32444315086648234
1.1453131409199901 13.064011307249503 1651.3522300485436 32.09676095029093 0.3293204689358062
1.1720788040268482 13.069027784832263 1461.379629301919 33.55896965688012 0.3343021382069989
1.198937755953035 13.073483037480147 1294.8514645227776 35.08860064557061 0.33940148826797484
1.2258854807229165 13.077341510949124 1148.5337776461297 36.68763352424434 0.34461501035188086
1.2528827550825188 13.080504475377474 1019.6742860088082 38.361164308786776 0.3499574094376235
1.2799276464582567 13.08294177973789 906.3083082011309 40.11148229920441 0.35542554224237916
1.3069724707297636 13.08452912692097 806.391668481972 41.94396802028307 0.3610334343129591
1.3340125976821007 13.085236587458287 718.2542330774005 43.86220178620251 0.36678355325226275
1.3610220153844113 13.085033448746524 640.3053090813963 45.87077866717981 0.3726831276529645
1.3879550329742572 13.083765030619922 571.5367874553367 47.97508131057836 0.37874238206449123
1.414805711700745 13.081458583625954 510.58280141073067 50.17992403464906 0.3849672535820982
1.4415377300927246 13.078014464233915 456.66267138696185 52.49042170492225 0.39136416116371464
1.4681340382166113 13.073413833045995 408.8195981779116 54.91304639482772 0.39794507731562234
1.4945436364154303 13.067539945422316 366.33111671124044 57.45399114413621 0.40471906838064153
1.5207569159307563 13.060388833974233 328.6880194795714 60.11988738573721 0.41169591122588645
1.5467410493395803 13.05189601276718 295.14428008871994 62.917844413207725 0.4188861517528209
1.5724581390133585 13.042008577769463 265.3241269541107 65.85549262760085 0.42630116818539365
1.5978721966714757 13.030666102134013 238.7918356692818 68.94103094717185 0.4339532396955147
1.6229695370724095 13.017845145672771 215.1280293809642 72.1832788114691 0.4418556209936397
1.6477227576854292 13.003496255831617 193.9850830338812 75.59173326531304 0.450022623588126
1.6720713361014257 12.987553498397755 175.14205869911146 79.1762429749549 0.45846808141601253
1.6960079690414696 12.969992326593738 158.28232457332703 82.94719252982155 0.4672060610500067
1.7194864267114616 12.950775862673702 143.20163014072713 86.91723564204185 0.4762577369097261
1.7424690609059823 12.929822062565059 129.71681680730865 91.09785860925273 0.48563706902522835
1.7649487559814665 12.907169594133354 117.60614987757327 95.5033544182098 0.49536676928585033
1.7868798693952768 12.882724559498756 106.7654179357829 100.14719990705247 0.5054635852653548
1.8082131478152927 12.856454257675367 97.0348568550158 105.04602981787806 0.5159536253814236
1.8289269387844003 12.82831819306963 88.28494500274653 110.21639638970208 0.5268594431127388
1.849000380515235 12.79832695198905 80.42511494720196 115.6760663679373 0.5382048826712067
1.8683731392591973 12.76638053077302 73.3459440660218 121.44502140415645 0.5500184060777017
1.8870485233606094 12.732550554827684 66.96975526618752 127.54470272837139 0.5623298631802
1.9049700626373447 12.696720142588704 61.22247955883097 133.99777440384239 0.5751693200845999
1.922108917318225 12.65889046552332 56.04515615733593 140.82985602418483 0.5885728014252778
1.9384198294749462 12.618989002554649 51.36445973346508 148.06863720204538 0.6025785722912795
1.9539128874077987 12.577129903384813 47.13827512657914 155.7425037829843 0.6172219662222951
1.9685259287057248 12.533190297588265 43.31806892407614 163.8852526095306 0.6325510540289198
1.9822366017383624 12.487175849655324 39.85793353366782 172.53083517761175 0.6486079409218344
1.9950212973542552 12.439082646454194 36.726470303693375 181.71827516233273 0.6654448368414684
2.006853355658157 12.388908802344137 33.88470375709421 191.48975531115929 0.6831166997087033
2.017695297635131 12.336619486016229 31.3115032634262 201.89134656717366 0.7016828110954468
2.02752906200863 12.28222404757127 28.977358617755055 212.97286585271004 0.7212053315677354
2.0363318419622094 12.225738457670206 26.856072226960272 224.79018511868549 0.7417557648972837
2.0440708624973705 12.167130563563425 24.929960781568536 237.40416897806466 0.7634101628801054
2.0507249734642783 12.106405853232198 23.17640894610181 250.88191298346572 0.7862517561046503
2.056291882365082 12.043642853743311 21.583290874499795 265.29674782036307 0.8103693258453968
2.060732175381354 11.978777249032639 20.13253356625855 280.7300036523059 0.8358610796910642
2.0640327216928287 11.911865059406765 18.813308511288135 297.2719658855534 0.8628356292165192
2.0661860458553205 11.842947966445873 17.610593624122483 315.0229626828398 0.891413109784306
2.0671712252199366 11.772042473497471 16.515554085683977 334.09227377835936 0.921718742468622
