M[M_sun], R[km], Lambda[1], P_c[MeV/fm^3], rho_c[fm^-3]
0.24162668629717493 15.618656898711224 2160425.4255784233 3.5677272577965504 0.1711233750220791
0.2536422397517418 15.277342222771377 1723224.1638335185 3.7848061683966874 0.17388800555984477
0.26603837999618934 14.981309839121305 1383113.807863482 4.011373237795447 0.17666631977757782
0.27881192363606033 14.723610281931752 1116470.5508907933 4.247684975849399 0.17945701271411177
0.29196579827007124 14.498484260946832 888719.5122156765 4.494366333395723 0.18226664636491685
0.3054997289564951 14.301311691667536 738710.2113002547 4.7515714679314565 0.18509089865262557
0.3194155006455007 14.128220478996571 605147.0678766473 5.019985044837956 0.18793644068277562
0.33371279032139023 13.976002919128153 497717.30932532804 5.299827818250641 0.1907998309644168
0.34839261056196413 13.842094238957499 411051.0976257459 5.591832217703395 0.19368744341673402
0.3634523198088698 13.724091790578123 340671.9998114345 5.896160700738195 0.19659425205351838
0.37890604662480515 13.620071262858763 283330.89880350896 6.213679315181326 0.199527979111458
0.3947371278942725 13.528527828643224 236432.2823658158 6.544648742407917 0.20248486117708797
0.41096073573027464 13.447954936439736 197904.23940957282 6.889764837074067 0.20546849904799505
0.42756751148092403 13.377108685564854 166100.02328442433 7.249735520853924 0.2084820187323248
0.44456103790327695 13.314977237264213 139829.66017256322 7.624824508664989 0.2115210430622883
0.46194122251742387 13.260612155099617 117999.05227141437 8.015971287698674 0.21459158732141406
0.4797030754959409 13.213212487738978 99825.14495367302 8.423885080478648 0.21769536886870788
0.497859190479961 13.172059824130962 84660.72725628683 8.849013253730684 0.22082995021121657
0.5163951917394919 13.136444835025715 71952.14102057916 9.292216056004781 0.2239985554484794
0.5353124558425474 13.105875428156272 61288.62423184252 9.754384192622915 0.22720419229168629
0.5546174663994844 13.079855981897206 52312.91310161005 10.23632701760943 0.23044821130146895
0.5742975047018906 13.057869846197825 44740.579858176585 10.738524657347991 0.23372742415229392
0.5943534334834455 13.039541544637231 38337.66814127066 11.26220382034405 0.23704779405224996
0.6147870343836601 13.024526298751628 32910.35302289958 11.808310308767089 0.24041104477185476
0.6355865856332663 13.012447795293411 28301.135700965868 12.377822830157784 0.24381880872714207
0.6567578175312714 13.003052161182664 24377.66929043356 12.971442730665432 0.2472691770991351
0.6782879490491818 12.995995001608856 21034.202853449046 13.590471957894964 0.25076665895445277
0.7001735879185658 12.991072210619752 18177.923448559988 14.236119596000332 0.254314025070619
0.7224055923953717 12.98800668143276 15734.175110015694 14.909574944239681 0.25791325932558373
0.7449911315662162 12.986646259075446 13638.513633155177 15.61188290432286 0.26156441294162414
0.7679086849706902 12.986754317801974 11839.29800032324 16.34427891499744 0.2652690759968638
0.7911519448399894 12.98813010067431 10293.377573791806 17.10839312780713 0.26903208688930336
0.814723364614683 12.990650382947669 8958.92161250863 17.905680075825348 0.27285587718762977
0.8386032474860677 12.994119742494592 7810.037515063078 18.737521881216896 0.2767416809260108
0.8627819319409673 12.998381530902892 6816.789503350281 19.605228873767324 0.28068967657776617
0.8872539558379048 13.003332630182154 5957.126646328255 20.51090242670445 0.28470637071292293
0.912014213408787 13.008832945172376 5212.977166426591 21.456335978365704 0.28879477530982833
0.9370308934139395 13.014721564824722 4566.950979355107 22.44303490401126 0.29295498563160527
0.9623067487247977 13.020922032212502 4006.170983589018 23.472981253686147 0.2971904566891881
0.987828030101241 13.027318049231289 3517.754572882594 24.54861708398724 0.3015074550787782
1.0135684870179296 13.03377254132027 3093.3667126073983 25.67190952217745 0.30590779993966416
1.039530178642908 13.040231425303794 2722.483439764209 26.844768936896664 0.3103923779776332
1.0656790611654687 13.046550878049747 2399.2302744025205 28.07031516959477 0.31497010419602334
1.092007004451723 13.052685248878735 2116.397666068193 29.35063141062122 0.3196416217622518
1.1185044230963568 13.05852015770478 1869.3007000258463 30.68841524038378 0.3244112212980787
1.145132514894173 13.063985162448386 1652.5550996832585 32.08712555737105 0.3292873626747815
1.1718932402383067 13.068989653134343 1462.7051367377728 33.54863729283253 0.3342673170748472
1.1987476694829333 13.073448061190959 1295.9483648131436 35.07752254182307 0.3393648559821625
1.2256908482855093 13.077318763966007 1149.5270273840695 36.67584182950013 0.34457697216995115
1.2526847294349894 13.080487624371944 1020.6095269559104 38.348579225126095 0.34991769341335716
1.2797231624513725 13.082933755299209 907.0499818862223 40.09802502711171 0.3553839099383085
1.3067656415616562 13.084523286218467 807.1040281685462 41.92963880745595 0.3609901149317165
1.3338016701355997 13.085230558125895 718.8544528157864 43.84683997267749 0.3667378899979215
1.3608075090900207 13.08503605769458 640.9123261569802 45.85441644205533 0.3726355485249428
1.3877369946935305 13.083781800327781 572.0630764970037 47.95764878355994 0.37869276346525466
1.4145917199603892 13.081495319711324 511.04872872622093 50.16123004549183 0.38491487096435945
1.4413140273599445 13.078048569447576 457.0765991797236 52.470495930774014 0.391309452453446
1.4679062758530064 13.07345583282073 409.1930724580465 54.89180060340852 0.3978878874660941
1.4943149731787477 13.067594084717841 366.6957979226103 57.43132995608002 0.40465923035895635
1.5205256683395576 13.06045803035443 328.98927400333747 60.09570763467716 0.4116332450286258
1.546507975400325 13.051978148611257 295.4226546419529 62.89203444200926 0.41882046332413714
1.5722235714691368 13.04210471406679 265.58600500565865 65.82793151363028 0.42623224822707656
1.5976469991716142 13.03078488593896 239.03325611514364 68.91158764862446 0.433880862357335
1.6227277829000755 13.017946301613433 215.337384360917 72.15181122580115 0.44177954243087875
1.6474859501889996 13.003642407647249 194.1879573060235 75.55808718970857 0.44994258037161833
1.671834296111385 12.987718596940288 175.3110261906909 79.14042665263955 0.45838452234581617
1.695772750532963 12.970178441711106 158.43790081150522 82.90885650331079 0.4671179649727376
1.719238216902389 12.950944183362155 143.3522174537405 86.8761825603731 0.47616477187824685
1.742240403307939 12.930051682383871 129.83706719080948 91.05407138466114 0.48553965856801007
1.7647211752950676 12.907410966891353 117.73526633631923 95.45641121630676 0.49526376541896744
1.7866493314932996 12.882988407729593 106.87131314955599 100.09705985255012 0.5053553852030035
1.8079886832915772 12.85674446147928 97.13140335567131 104.9924328999897 0.5158398122139441
1.828701415712907 12.82862257855834 88.37215754920526 110.15905338700523 0.5267395449942559
1.8487826910081062 12.798669858588706 80.50282887689576 115.61444463095678 0.5380775934266316
1.8681714913455092 12.766777484089216 73.41881543760434 121.37900320104622 0.5498840172091417
1.8868448440607324 12.732941012684895 67.04117427927785 127.47403259579707 0.5621882091191691
1.9047703402185179 12.69713951532047 61.28805052573383 133.92207655021676 0.5750198690175679
1.921915926830783 12.659340610924772 56.10083096411462 140.74855075657672 0.5884143878451465
1.9382323266678825 12.619467456198805 51.41661318895373 147.98123760716337 0.602410454822123
1.9537450555597997 12.577675964986192 47.1853801462715 155.64876295032184 0.61704431796081
1.9683545815749544 12.53373066119867 43.35942698712179 163.78460245248357 0.6323630386990948
1.9820763938637807 12.487750435877329 39.898237649016835 172.42234891890828 0.6484076329067805
1.9948714912253895 12.439690060712822 36.76329692701761 181.601559517905 0.6652322376767893
2.0067054477126343 12.389534397819018 33.921147116918895 191.36405231706428 0.682890721928638
2.017566546981332 12.337292700908593 31.34395746366072 201.75582009898358 0.7014422649829932
2.0274074555927726 12.282927022979605 29.00533668958714 212.82693434489906 0.7209500331256249
2.0362254087594183 12.22648018506775 26.883221726566287 224.63249778970504 0.7414831985951381
2.043976576277291 12.16790633347908 24.952736869991124 237.23395758784613 0.7631199368238982
2.050643991241605 12.107222467948239 23.19854909158118 250.69785453671162 0.7859419091342972
2.0562188559029106 12.04447495167012 21.60313249782178 265.09733404368427 0.8100375668503259
2.0606793997577015 11.979668592512816 20.150878924001 280.51428640732274 0.8355072532015427
2.0639998080944397 11.912806519214406 18.830130900225424 297.03792821882627 0.8624564462612913
2.066163449394632 11.843913944859425 17.626359403078038 314.7687251861278 0.8910061255567371
2.0671655961591546 11.773044548686268 16.530330272115577 333.8161595599399 0.9212826421164766
