M[M_sun], R[km], Lambda[1], P_c[MeV/fm^3], rho_c[fm^-3]
0.24162668629717493 15.618656898711224 2160425.4255784233 3.5677272577965504 0.1711233750220791
0.25364382459162277 15.277298848763804 1723186.0772199007 3.7848165473662956 0.17388813492869395
0.26603961250541674 14.98126544210596 1383025.2694803984 4.0113950564177046 0.17666658344275132
0.2788142930878756 14.723535029227644 1116422.487466211 4.247718972237693 0.1794574070209845
0.2919678455805128 14.498461858530304 905867.01543921 4.49441339959497 0.18226717045796897
0.3055047812929625 14.301219255627009 738657.4948150108 4.751633202002751 0.1850915654984168
0.31941854897651767 14.128187767900645 605128.3428760826 5.020061901480038 0.18793723810010116
0.3337180934915798 13.975977073922873 497699.0471515769 5.299921820821205 0.1908007774143239
0.3483982666471845 13.842049735366686 411019.4276898808 5.591943600851844 0.19368852107933573
0.36345945562403836 13.724042630995715 340655.53128507006 5.8962919667587075 0.1965954849317619
0.37891390535807357 13.620016487086069 279403.21260132984 6.213832052496692 0.19952937189186645
0.39474521520285016 13.528485077395878 236409.61676724142 6.544822792386277 0.2024863873602682
0.41096988358149245 13.447911012652972 197881.5775141631 6.889963559623773 0.20547019145261902
0.4275774792797832 13.377076692264831 166093.6914570908 7.249960780658988 0.20848388224896294
0.44457212182549355 13.314941649430365 139808.3285002258 7.6250756830834625 0.21152304257216398
0.4619529968181086 13.260601367594893 117988.46019960326 8.01625275765354 0.21459376471907365
0.47971736738113196 13.213164641492819 99820.43262625409 8.424199040701655 0.21769772941067655
0.4978738987817089 13.171996640072308 84649.43233836249 8.849358546563362 0.22083245027885745
0.5164124711212793 13.136404502880328 71943.89662991314 9.292598269147964 0.22400124625283563
0.5353294572982348 13.105854037530795 61282.24842915873 9.754805917424491 0.22720707964290981
0.5546369645454273 13.079806162863553 52303.20451197369 10.236791002871449 0.23045130126231275
0.5743169106930378 13.057850240207713 44733.27970406693 10.739028887036605 0.2337306614630856
0.5943733153942773 13.039533535134082 38330.0870382153 11.262755877031774 0.23705124331242503
0.614809685750876 13.024509613799314 32903.975190629455 11.80891345353724 0.24041471289838212
0.6356130861961585 13.01246098269788 28294.57328164431 12.378480527535702 0.2438227030021198
0.6567822157743965 13.003037028710217 24373.210857464554 12.972151960414159 0.24727323076554547
0.6783133437938962 12.995986506822295 21029.41687929024 13.591242790784484 0.25077095074546313
0.7002010910521893 12.991054127691513 18038.342679252004 14.23695616484634 0.25431856349743737
0.722435152651247 12.988003989646867 15731.480546552042 14.910481647387968 0.25791805340691304
0.7450208735261271 12.986666359700532 13635.157940424422 15.612855576414576 0.2615693845961581
0.7679413801364366 12.986759594447015 11837.47145302441 16.345330727396284 0.26527431901786835
0.7911848167103019 12.988129265318758 10289.816801373767 17.109529358995463 0.2690376119968121
0.814757115321318 12.990661566942869 8957.072264294065 17.90690635422812 0.2728616957909678
0.8386418755203656 12.99411340800924 7808.306351425387 18.73883276794643 0.276747703772262
0.8628195665201437 12.998404529907214 6815.217153337744 19.60664141260712 0.28069601374869874
0.8872964100128178 13.003346922691367 5956.182152399003 20.512423415704482 0.28471303592255415
0.9120543627469776 13.008851362330844 5211.804837166311 21.457972681070846 0.2888017831968439
0.937074605401659 13.014732012381131 4565.898898555087 22.44478050276038 0.2929622358550159
0.9623479075117349 13.020937767232004 4004.993709231678 23.474857653177633 0.29719807730505565
0.9878763380840742 13.027322773722483 3517.0076089128333 24.550633115616353 0.3015154638153855
1.0136165367906134 13.033784641137071 3092.2380647577875 25.6740573824893 0.3059160889462621
1.039581399230563 13.040240035123905 2721.823904100745 26.847074882203824 0.31040108942377315
1.0657307959009517 13.046565405446753 2398.6212474100953 28.072789993118757 0.3149792596443743
1.0920614570486278 13.052703370577529 2115.9147723978526 29.35326634157939 0.3196511058958454
1.1185585336149553 13.058532670418403 1868.8368600175377 30.691241734954627 0.32442119194082963
1.1451894871287391 13.063983834279616 1652.3495291438574 32.0901343909589 0.3292977007306312
1.171950403159871 13.069001446733044 1462.2483215814361 33.55186375605623 0.33427819058857333
1.1988057127943157 13.073459432086143 1295.5806563300407 35.08098186157744 0.33937629501476646
1.2257521084950778 13.07732484009803 1149.2371239276772 36.67952396771039 0.3445888501778347
1.2527461451745805 13.080495140818698 1020.2938587760494 38.35252654332125 0.34993019765206124
1.2797872178782708 13.082932186220376 906.8516379389584 40.102227236075656 0.3553969101689756
1.3068308445187171 13.084522853668433 806.8625358787866 41.93411327598336 0.36100364192795387
1.3338673915016335 13.08523956470162 718.6997849024511 43.85163686265541 0.36675214883570467
1.3608743893948712 13.085036893721401 640.7085205879362 45.859525703121626 0.37265040556208295
1.3878041136946055 13.083777618268995 571.8775236058716 47.96309223698072 0.3787082572908752
1.4146607214014242 13.08148861001599 510.8956665481218 50.16706737499883 0.3849312278049251
1.4413835896766765 13.078038380013455 456.9516275426215 52.476717870493054 0.39132653556875513
1.4679775547817049 13.073441212695164 409.07455576398974 54.89843470089341 0.39790574526340705
1.4943862480959542 13.067579357605629 366.59155203899843 57.43840599014912 0.40467791498745076
1.5205978752613152 13.06043704461267 328.8869163630233 60.10325781517284 0.4116528126866683
1.546580763376273 13.051953385134638 295.3345487932482 62.90009362948795 0.4188409745970042
1.5722968199675504 13.042075979684707 265.50441915028506 65.83653746120275 0.4262537684583926
1.5977209850213323 13.03074925749432 238.96194869941638 68.92078126843634 0.4339034620578797
1.62280685659673 13.01793420010461 215.2716309485431 72.1616368829487 0.44180329772884963
1.6475603943535584 13.003595677133614 194.1278150588316 75.56859302673159 0.4499675735089254
1.6719086470421893 12.98766455842039 175.25651679124437 79.15161009688399 0.4584106131932915
1.695847236578243 12.970121902760404 158.39083690044112 82.92082665480697 0.4671454723460131
1.7193266769729019 12.950914499406418 143.30185142746697 86.88900103139396 0.47619379940830137
1.7423130579241848 12.929978181266705 129.7996194267837 91.06774351105791 0.4855700740167141
1.7647925372233333 12.907334770469046 117.69562083008876 95.47106869120039 0.49529592719173915
1.7867205473164562 12.882902415339652 106.83376168665865 100.11271543814567 0.5053891692775203
1.8080594314288163 12.85665429848601 97.10087092931859 105.00916776956682 0.5158753487445689
1.8287704970199354 12.828524323742068 88.34306777839518 110.17696169249099 0.5267769956508059
1.848850557231464 12.798564944660413 80.4763509998419 115.63368493585033 0.5381173372572229
1.868237613539421 12.76666238388106 73.3927130702925 121.39961612087765 0.5499259775601261
1.8869084384815262 12.73281758204773 67.01751706333978 127.49613384572517 0.5622325661514258
1.9048321202712102 12.697009338719578 61.26655481623392 133.94571152010607 0.5750665317867224
1.9219760541183284 12.65919863697617 56.082141586737684 140.77393637488547 0.5884638486832747
1.9382925157101851 12.619318001608978 51.400679877898135 148.0085258755591 0.6024629451640582
1.9537899004852863 12.57748174493447 47.16932059665346 155.67803095096662 0.6170997837518001
1.9684085028603047 12.53356021413893 43.34635457512645 163.81602752609587 0.6324217409977632
1.9821257045008585 12.487568524285182 39.886143624368934 172.45622037132205 0.6484701728402346
1.9949173534695248 12.439500951170832 36.75100624481101 181.63800012233148 0.6652986147430296
2.006756224264622 12.38934761097374 33.908260571042135 191.40329868171764 0.6829612755890647
2.017605829720124 12.33708348162391 31.332025728353823 201.79813322827013 0.7015173666136307
2.0274455481635023 12.282705816813515 28.996948250116905 212.87249578485486 0.7210297401389731
2.03625938336112 12.226248933554604 26.874092478721664 224.68172918732063 0.74156829623795
2.0440064945697736 12.167663684861981 24.94642603711676 237.28709875663026 0.7632105473983061
2.0506692545476666 12.1069672912686 23.190753130403117 250.7553825657423 0.7860388536058541
2.0562456990709914 12.044231037493715 21.59661057375189 265.15960658977207 0.8101411919849747
2.0606953918233413 11.979391059963724 20.14461073673933 280.58163335939105 0.8356177178778006
2.0640039484627457 11.912503047632358 18.823694692079727 297.11099423836254 0.8625748263049908
2.066170496570449 11.843613409081868 17.621227450439193 314.8480969018043 0.8911331840623201
2.0671669672561097 11.772732272333993 16.52616918663807 333.9023603927911 0.9214187894462911
