M[M_sun], R[km], Lambda[1], P_c[MeV/fm^3], rho_c[fm^-3]
0.24162668629717493 15.618656898711224 2160425.4255784233 3.5677272577965504 0.1711233750220791
0.2536441176008635 15.277292288601668 1723222.7951905052 3.784822002284781 0.17388820292162133
0.26604077594433984 14.981231975846216 1382983.9938768905 4.01140652375635 0.17666672201877132
0.2788158764737558 14.723490607121127 1116456.677445114 4.247736839965998 0.17945761425970674
0.2919700946829149 14.498406110755967 905840.130029251 4.4944381365877 0.18226744591012417
0.305505706521779 14.301221956347955 738634.6616698487 4.7516656482088 0.18509191597936664
0.3194216046521299 14.128142127727578 605102.0397609061 5.0201022959182104 0.18793765720798802
0.3337214513764691 13.975924807833007 497673.3375584619 5.299971226980629 0.19080127485236967
0.34840120420525705 13.842025931892517 411005.86926566844 5.592002142099455 0.1936890874820105
0.36346463280940033 13.72397410864743 340641.9773437731 5.896360958320317 0.19659613291510872
0.3789171762707606 13.619999853623781 283301.23498856643 6.213912329281888 0.1995301039194879
0.39476968297117876 13.528284157448903 235903.06655170745 6.544914271059134 0.2024871895046475
0.41097508959553175 13.447856093898578 197870.24118970585 6.890068006191529 0.20547108096341934
0.42758260997991787 13.377080104750263 166086.1812133116 7.25007917524954 0.20848486169706865
0.44457785092321384 13.314926522902086 139798.20998187474 7.62520769847756 0.21152409349958662
0.46195938046133844 13.260569603236123 117982.2049131491 8.016400696534586 0.21459490914592197
0.4797238697507255 13.213157709657562 99807.96943902069 8.424364056690013 0.21769897010022088
0.4978819083432028 13.171987261367994 84640.22604899423 8.849540031228727 0.2208337643053771
0.516419599576171 13.136402269264922 71938.142162134 9.29279915950175 0.22400266053345033
0.5353379647902052 13.105844236181873 61273.91486569762 9.75502757557277 0.2272085972319234
0.5546456490400554 13.079818578687265 52299.63691348175 10.237034873688346 0.23045292534681897
0.5743279809106739 13.057840190972799 44729.49401987141 10.739293910908707 0.23373236299843864
0.5943841535198389 13.039523420030735 38328.662521778715 11.263046039566424 0.2370530562531924
0.6148213458871674 13.024502707625784 32902.00893801763 11.809230468897233 0.24041664088069933
0.6356256424812491 13.012434015405926 28291.914489881172 12.378826216826889 0.2438247498540641
0.6567978671813807 13.00301374887671 24370.384184661132 12.972524736175188 0.24727536139893164
0.6783289814980034 12.995968356102143 21028.38420581326 13.591647946556492 0.2507732065442539
0.7002159861019396 12.991051564991276 18172.005424236417 14.237395873035577 0.2543209489358239
0.722449803443591 12.987999044628792 15729.025335810953 14.91095821998308 0.2579205732258688
0.7450373434381783 12.986648501609745 13633.578119803691 15.613366824018321 0.26157199775478446
0.7679586880730738 12.986759414996166 11836.448276028155 16.345883573420874 0.26527707481664237
0.791203442946616 12.988136447389113 10288.911422312392 17.110126578095922 0.2690405160710622
0.8147779008577191 12.99066417674573 8956.338678270968 17.907550905017047 0.2728647541383737
0.8386596370205452 12.994134665061079 7807.461171917784 18.73952179157599 0.2767508694793294
0.8628413483999923 12.998405524671977 6814.6991478449345 19.607383868116933 0.2806993446783291
0.8873211600354203 13.00335183432034 5955.360769154875 20.51322287655764 0.28471653928397106
0.9120767382832512 13.008848342611415 5211.144996406376 21.458832965434436 0.28880546668536167
0.9370971585455534 13.01473712116123 4565.281846894925 22.445698026992588 0.29296604672831744
0.9623804977618224 13.02095086761046 4004.5957590123976 23.475843931615096 0.29720208287484207
0.9879005177392669 13.027330095776747 3516.521414356514 24.551692790626557 0.3015196734011497
1.0136435937536206 13.033790042030363 3091.8972393849804 25.67518635220101 0.3059204458578069
1.0396074343425605 13.040243121913553 2721.467606095351 26.84828694855665 0.31040566839219785
1.0657584761248233 13.046570510240745 2398.3440971705513 28.074090829799225 0.31498407200490247
1.0920897381176415 13.052700406377763 2115.7784420920216 29.354651338180602 0.3196560910332175
1.1185876510386854 13.058538099833825 1868.6042253053467 30.69272742697263 0.32442643281569356
1.1452182322178122 13.063997542072208 1652.100305539595 32.091715929394816 0.3293031347409217
1.1719811771465567 13.069006948159053 1462.0006152738877 33.553559692188074 0.33428390606819597
1.1988371718475803 13.073461545020141 1295.5069852164027 35.08280019987758 0.3393823077665724
1.225782691971742 13.077335879006949 1149.0293343240103 36.681459431496535 0.34459509368440544
1.2527789391776594 13.080498239203825 1020.1551940201426 38.354591510118254 0.34993671232472784
1.2798209994257317 13.082939369226251 906.6838192688016 40.10443607912459 0.3554037435914422
1.306864693918083 13.084519816541507 806.7313034829772 41.9364652347338 0.3610107522555766
1.3339017457131965 13.08523226096969 718.5896609996596 43.85415830641768 0.3667596438705608
1.3609101557664323 13.085033678993579 640.6347052771989 45.86221134863591 0.3726582150544211
1.387840849452113 13.083778005882873 571.7971533161862 47.965953555398194 0.378716401526745
1.4146973868543329 13.081483801921795 510.81181227456625 50.170135741503934 0.38493982570601337
1.441421154656753 13.078031658035078 456.8782976674001 52.47998841414705 0.3913355152562622
1.4680151637710146 13.073434462669711 409.0206726719721 54.90192190325556 0.3979151321850063
1.494423994135386 13.067569943542704 366.52842607254 57.44212550580224 0.4046877365580479
1.520635829543369 13.060425426052861 328.84195815561986 60.10722657674619 0.4116630984499509
1.5466194018622053 13.051937617266708 295.2860506543607 62.904329963161175 0.41885175640300604
1.5723360623102802 13.042058916541258 265.4619501125041 65.84106121385537 0.4262650806587843
1.5977596870071877 13.030731624859405 238.9169694965341 68.92561394775267 0.43391534172090823
1.6228463148411663 13.017911761572414 215.24079424386755 72.16680181194823 0.4418157848760745
1.6475988330592042 13.003573090755305 194.09925117183872 75.57411551437667 0.4499807113761594
1.671947226390825 12.987637420948943 175.23495919885667 79.15748879037862 0.45842432811795786
1.6958844271931668 12.970091494308905 158.36202729818217 82.92711890957398 0.4671599319291417
1.7193649514399965 12.950880524441967 143.27788341114768 86.89573923800512 0.47620905813101494
1.742347527793556 12.929940532000984 129.7798331255549 91.07493047425154 0.48558606236439383
1.7648297313907308 12.907296172894206 117.67827887455083 95.47877364494558 0.49531283358068867
1.7867574667622457 12.882857826939302 106.8224105092765 100.1209450913452 0.5054069285120915
1.8080957441262453 12.856605585836467 97.08325321175235 105.0179647967564 0.5158940292502452
1.828806281256765 12.828473571869488 88.33023036845393 110.18637264124077 0.5267966714412563
1.8488867456118399 12.798508164362996 80.46666462913001 115.64379906909024 0.5381382295663775
1.8682634432837166 12.766570899433038 73.38873608262193 121.4104518404811 0.5499480351143904
1.8869431984379519 12.732752718903297 67.00890749128229 127.50775198699793 0.5622558836682575
1.904865207427477 12.696941061088037 61.255749617049254 133.95813594498279 0.5750910614591788
1.9220082224451276 12.659124378294525 56.07494777711412 140.78728113179903 0.5884898493444969
1.9383222836971128 12.619240231620703 51.39100920262678 148.02287087823544 0.6024905384904145
1.9538193390139964 12.577398303677331 47.161286908749105 155.6934167236316 0.6171289413311378
1.9684366181590007 12.53347136427773 43.338617283076836 163.8325473047071 0.6324526000814978
1.982152487809827 12.487474086844063 39.87985721244632 172.47402625984796 0.648503049466542
1.9949429797757365 12.439400721258536 36.745047684014175 181.65715666780227 0.6653335086562253
2.0067791426561703 12.389242991725148 33.90161564385109 191.4239302821762 0.6829983652646479
2.017627759040652 12.336972291833877 31.32769307894683 201.82037710913914 0.7015568473079954
2.0274645383293954 12.282589755780931 28.99152946068028 212.89644739389755 0.7210716420460141
2.0362759727434305 12.226127828873135 26.86999662529263 224.70761021385985 0.7416130322084629
2.0440221410218378 12.167536261877077 24.94230245131705 237.3150352848305 0.7632581817451807
2.0506827503890577 12.106833163301005 23.188062145200057 250.78557642632052 0.786089658372653
2.056255928397993 12.04409048567076 21.593340017899525 265.1923438518897 0.8101956686911332
2.0607045562782527 11.979244723168117 20.141917163451744 280.6170384564646 0.8356757904774654
2.064011989530549 11.912352326767085 18.821705065005037 297.14940612527477 0.8626370604444733
2.066174203196363 11.84345503684074 17.619084627743533 314.8898240209758 0.8911999809730211
2.0671684625107156 11.772567271078975 16.52327622754981 333.9476779510608 0.9214903649096371
