M[M_sun], R[km], Lambda[1], P_c[MeV/fm^3], rho_c[fm^-3]
0.24162668629717493 15.618656898711224 2160425.4255784233 3.5677272577965504 0.1711233750220791
0.2536436398271092 15.277287263849336 1723191.665763355 3.7848140380499267 0.17388810365127594
0.26603935278759944 14.981274625618994 1383087.9398242617 4.011389781336578 0.17666651969650907
0.27881406475494264 14.723548151134722 1116473.7435349885 4.247710752930349 0.17945731168940554
0.29196783551367234 14.498437646071304 905961.1464704821 4.494402020383435 0.18226704374780756
0.3055034714734956 14.301233808649206 738735.4542057248 4.751618276513613 0.18509140427464837
0.3194196065834446 14.128150771869375 605125.7858679822 5.020043319771766 0.18793704530770594
0.3337164626030658 13.97597398190196 497685.2503303481 5.2998990936932255 0.19080054858985626
0.34839691727116506 13.842061127755407 411026.3973255177 5.591916671563692 0.19368826053106486
0.36345910310913787 13.724013397499103 340670.75140250236 5.896260230313095 0.19659518685634855
0.3789120305799603 13.620026859082756 283322.72889305203 6.213795124844464 0.19952903515614193
0.39474349314248897 13.528489136373462 236422.06685982898 6.544780711871309 0.20248601837099992
0.4109672111960098 13.447906427277477 197875.73532606266 6.889915513894484 0.2054697822750268
0.42757497360297525 13.377085405873126 166091.46418790292 7.249906318869571 0.20848343170053646
0.4445692954914843 13.314974114152543 139817.49359391138 7.625014955763873 0.2115225591436525
0.46194996293536744 13.260613406334837 117991.79421854288 8.016184705589087 0.21459323828133736
0.4797138155122621 13.213180044897388 99824.19818238282 8.424123133244724 0.2176971586927171
0.49787033282132975 13.172037168686495 84653.23340509666 8.849275063599098 0.22083184582652665
0.5164076251421713 13.136418232236267 71945.25323193072 9.292505859682276 0.22400059568443612
0.5353254257051709 13.10587692448726 61282.97767795809 9.754703954912312 0.22720638155357953
0.5546291961169961 13.07985385734636 52305.00161205378 10.23667882269684 0.2304505541861115
0.574312161825234 13.057856196188364 44734.70412769265 10.738906976623374 0.23372987876046955
0.594366668149385 13.039556740380538 38332.31996560475 11.262622403054426 0.23705040936459917
0.6148036659944505 13.024515767066289 32905.155773031445 11.808767627515275 0.2404138260328632
0.6356062680629911 13.012431665458452 28296.134962079435 12.378321511798124 0.24382176145813816
0.6567763162445478 13.003024917057525 24373.827374624503 12.971980485185084 0.24727225068345282
0.6783071970496609 12.995981438643627 21030.506123440588 13.591056421122593 0.2507699130891171
0.7001945851914932 12.991067141480903 18175.036110969126 14.236753901493847 0.25431746620887863
0.7224264293026017 12.988005058126648 15731.646285544504 14.910262426884062 0.2579168943054731
0.7450142096313263 12.986646863032545 13636.14943275533 15.61262040585909 0.2615681825602732
0.7679336021308536 12.986759526452929 11838.214532854188 16.345076422155685 0.26527305137002594
0.7911772440116127 12.988138724063461 10290.726264557235 17.109254642798458 0.2690362761449727
0.814750320058377 12.990665999074016 8957.662438256515 17.906609866189637 0.2728602889764251
0.838630556071138 12.99412344239765 7808.618832310141 18.738515823093188 0.276746247574653
0.8628097244285078 12.998397280486826 6815.526885556926 19.606299889985607 0.28069448155208304
0.8872865954651523 13.003334456860244 5956.400006369884 20.51205567162144 0.2847114244109626
0.9120445018614337 13.008848383879444 5212.086838787684 21.457576959278665 0.28880008883072567
0.9370631967465954 13.01472480327851 4566.063431065793 22.44435845166439 0.2929604828950426
0.9623398471670002 13.020933001059683 4005.1384096541797 23.47440397648417 0.297196234789203
0.9878644356691894 13.027324870980303 3517.2107247761246 24.55014567797886 0.30151352745704924
1.0136055000017952 13.033782882115515 3092.398685170491 25.6735380706756 0.30591408482195925
1.0395681867382334 13.040235438446697 2721.910615334921 26.846517347717462 0.31039898315887865
1.0657181099885777 13.046560535844387 2398.7676665731638 28.072191626250444 0.31497704602513854
1.0920486681947819 13.052689246029008 2116.105242462271 29.3526292629975 0.31964881280411883
1.1185455563573445 13.05852608677877 1868.9469566124806 30.690558338848234 0.32441878121678136
1.1451752641686368 13.063983400882956 1652.4352877883503 32.0894069077326 0.32929520116991984
1.1719369249510296 13.068997717101544 1462.376886769331 33.55108365273494 0.3342755615599486
1.1987910612580737 13.073463359942378 1295.6506201273428 35.08014545639725 0.3393735292495855
1.2257367041813314 13.077329355197579 1149.2939257777807 36.6786336877822 0.34458597827259874
1.2527314462423165 13.080493863786394 1020.3581058343341 38.351572145923 0.3499271743303283
1.2797717951218126 13.082932352132866 906.9361399528177 40.10121120905286 0.35539376692079977
1.306814674781288 13.084521397035966 806.9050108475755 41.933031419670634 0.36100037131241997
1.3338513469892312 13.085239041302044 718.7776643790221 43.85047704818634 0.3667487012672907
1.36085847649134 13.085033262399781 640.7619888215792 45.85829036060524 0.37264681335385386
1.3877877002852803 13.08377867172345 571.9257072836422 47.96177609014262 0.3787045111121125
1.4146443258847465 13.081488801520544 510.931155548719 50.16565599255399 0.3849272729557771
1.4413663202780038 13.07803959350356 456.98089874904764 52.475213492882176 0.39132240511147726
1.4679601099753372 13.073444844457056 409.11296443642135 54.89683066721399 0.3979014274932212
1.494369339740895 13.067583564578424 366.6045087411807 57.43669509997292 0.404673397294768
1.520580531743007 13.060443362683747 328.90836455650026 60.10143228024128 0.4116480814827844
1.5465632008136705 13.051958539637084 295.353550760377 62.89814502058871 0.41883601523243436
1.5722789309002196 13.04208365614116 265.5219491300704 65.83445664969042 0.42624856513305354
1.5977030579188145 13.030758111418555 238.9788540188435 68.91855836179417 0.43389799772223386
1.622790209734095 13.017943354350143 215.288821380272 72.15926115371575 0.44179755397502435
1.647542000191984 13.00360879888725 194.14544598956695 75.56605283403613 0.4499615304507012
1.6718914383994286 12.987678367797855 175.27622514106483 79.1489060628694 0.45840430471287164
1.6958290049416889 12.970135441129727 158.39887601655596 82.91793239894406 0.46713882135446955
1.7192936793176858 12.95089638147775 143.31914325856235 86.88590165572529 0.4761867808473337
1.742295151667227 12.92999695587083 129.81408527646383 91.06443772545761 0.4855627198605693
1.764774878678696 12.907354007024443 117.7052782206798 95.46752465186314 0.49528815077808774
1.7867033875738774 12.882925153591685 106.84811000329321 100.10893005923808 0.5053810005940618
1.808039663393787 12.85667721040286 97.10128069744488 105.00512142314724 0.5158667563194654
1.8287542473080531 12.828547613691182 88.35348865290413 110.17263296929293 0.5267679454420727
1.8488342005002214 12.798589389613658 80.48373978972421 115.62903278028483 0.53810772750916
1.8682223349551992 12.76668929590879 73.39773870615568 121.39463206904423 0.5499158318570444
1.8868926810210735 12.732847451257712 67.02362491468284 127.49078991704164 0.5622218409291979
1.9048176338352394 12.697039919419327 61.269610130701466 133.93999673928013 0.5750552490349483
1.9219615159307921 12.659233770459194 56.08748229462494 140.76779828694285 0.5884518893537656
1.9382775745397067 12.619354017057164 51.40259396339995 148.00192772531472 0.6024502532937847
1.9537769895175754 12.57751975616031 47.17356153129226 155.67095409961448 0.617086372410085
1.9683959608463104 12.53360166600156 43.34911524410129 163.8084290911754 0.6324075470581844
1.9821136628806746 12.487611646645743 39.889276598791334 172.4480303956068 0.6484550509455498
1.994906056005464 12.439546443337091 36.75356487170013 181.62918891831688 0.6652825650127429
2.0067452800059318 12.389395685480354 33.90964460700927 191.39380903499685 0.6829442159373436
2.0175960177603445 12.337134210867207 31.334014200579382 201.78790202495804 0.7014992072369768
2.02743635685723 12.282759048043324 28.998799761840342 212.86147912540912 0.7210104671523786
2.0362501107670394 12.22630546701634 26.87552090933139 224.66982511156635 0.7415477197596129
2.043999676432379 12.167722112861684 24.94863385961878 237.2742492748754 0.7631886378515406
2.0506627985491934 12.107029584632759 23.1928830663246 250.74148910088869 0.7860154671463908
2.0562395496797725 12.044296279608536 21.598054629992543 265.14454907422527 0.8101161354042816
2.0606934783314776 11.979456871027942 20.146865507424437 280.56534881200764 0.8355910074298966
2.0640048016580868 11.91257258972865 18.826680543061226 297.09332676835726 0.8625462018379053
2.0661687921179768 11.843686206334258 17.622370286234364 314.8289046516676 0.8911024610446764
2.0671667462731897 11.772806516634185 16.527230131600724 333.8815167901742 0.921385868640933
