M[M_sun], R[km], Lambda[1], P_c[MeV/fm^3], rho_c[fm^-3]
0.24162668629717493 15.618656898711224 2160425.4255784233 3.5677272577965504 0.1711233750220791
0.2536292324068204 15.277663550938835 1723650.6806086218 3.784559983074493 0.17388493697856733
0.26600978752133314 14.981917808237762 1383738.6006512037 4.010855733029221 0.1766600660378884
0.2787696659654637 14.724342665920346 1094721.7219390706 4.246878670319697 0.17944766078504373
0.29190770148770223 14.499351972778229 906826.255250997 4.493250096620222 0.1822542168093566
0.3054237217296459 14.302336730064038 739505.8181371525 4.750107430494648 0.1850750842541506
0.3193220151008044 14.129260752066308 605912.0959902605 5.018162451322141 0.18791753057159255
0.33360164146901183 13.977068642173325 498484.5406451184 5.29759872256085 0.19077738766955923
0.3482595359720483 13.843192304469053 411732.80842374725 5.589191084203285 0.19366188972356965
0.36330195203717136 13.725139023401645 341314.00193836074 5.893048237751297 0.19656501914247806
0.37873086564555913 13.621186895647131 283911.7917357079 6.210057901127198 0.19949495617575075
0.3945405637698494 13.529578219898426 236951.0615192175 6.540522166947695 0.20244867668503222
0.4107409299813339 13.448952422077578 198355.11673174702 6.885053496574701 0.20542837529526514
0.4273226622064086 13.378092131668083 166533.67952615395 7.244395257414613 0.20843784010148364
0.4442933628674656 13.315885411180044 140199.5727149071 7.618870109559107 0.21147364221673945
0.46164657777429746 13.261480685158968 118335.8491457183 8.009298973060826 0.2145399715733556
0.4793838629914463 13.213996534951265 100129.19098208936 8.416442884114868 0.21763941395605196
0.4975105324778428 13.172768260854518 84922.65210046686 8.840828638599774 0.22077069010065178
0.5160173460240834 13.137107941072482 72195.4653935732 9.28315667391532 0.22393477683378296
0.5349081685716616 13.106474981524475 61498.22305278621 9.744388695012242 0.22713575782411843
0.5541830655131751 13.080374723811577 52007.275817100926 10.225330331511971 0.23037497766188103
0.5738299063071202 13.05833914571446 44904.99470159833 10.726574574504548 0.2336507009187666
0.5938603782288278 13.039980100627703 38479.215293135225 11.249120779315472 0.23696605097514878
0.6142598108084001 13.024865964263395 33037.58152713547 11.794017119634352 0.24032411833426823
0.6350255138632109 13.012751609632817 28415.064044757186 12.362237491505786 0.2437265267805052
0.6561591869873182 13.00324083770373 24478.67267080338 12.954636806299227 0.2471731213270515
0.6776575547033483 12.996178248431393 21123.45211687136 13.57220701425285 0.25066496464172466
0.6995108249556393 12.991189635894276 18257.1590148641 14.216297826959936 0.2542064910061731
0.721706121453604 12.988079870909177 15804.356077574801 14.888092264763483 0.25779967230123574
0.7442556659155423 12.986678812119512 13700.835197354605 15.588834290649999 0.2614465860276416
0.7671379283783363 12.986726610288521 11896.095138162538 16.319359960676874 0.26514486125946535
0.7903473507693377 12.988079563096226 10341.77324721426 17.08147525231135 0.2689011943759248
0.8138741811778949 12.990540584568722 9003.818095809516 17.87663010921832 0.27271803717325155
0.8377207295937636 12.993982381761441 7849.599185059972 18.706348280253046 0.2765979402379152
0.8618647381474284 12.998222813051845 6851.700385241255 19.57176894317007 0.28053956297125027
0.8862956081063289 13.003137729296375 5988.750694701281 20.474875019175194 0.28454849302699187
0.9110152869794265 13.00859435824955 5240.75575560712 21.417569269135615 0.28862878748723964
0.9359973829198929 13.014480748914128 4591.5011263028055 22.401690273068585 0.29278326357273254
0.9612317542981267 13.02065580997869 4027.8789870338687 23.428540438198915 0.2970099693328416
0.9867169232565597 13.027046441962588 3537.591576437132 24.500871200669607 0.3013177833503923
1.0124188669260812 13.033486745187373 3110.8050546467475 25.62090093200098 0.3057104507177176
1.0383363178758211 13.039929460372985 2738.29359793604 26.790161154025878 0.31018607960714606
1.0644565723571844 13.046277220177572 2413.2413674121867 28.011710634582407 0.3147533005378077
1.0907440081717243 13.05239321827832 2129.292617332793 29.288237644747202 0.31941704251507286
1.1172028914508099 13.058249605018874 1880.718791883564 30.621488260793413 0.32417513204081355
1.143796725189204 13.063716422784669 1662.8468966487474 32.01542484813743 0.3290396135102219
1.170520493863552 13.068741978207864 1471.854882284497 33.4722457704366 0.33400986976807734
1.1973384678380345 13.07322223497967 1304.1542495947785 34.995621460871796 0.33909403131088983
1.2242497328496051 13.077132654608542 1156.77945192553 36.5886686108874 0.3442957648608307
1.2512101438954346 13.08033054308244 1027.2451658529017 38.25513227412 0.34962167395817834
1.278218807596373 13.082818313510913 913.0744144803556 39.99854766958549 0.3550761602273603
1.3052310436831114 13.084450507480469 812.4600075986652 41.8235336483478 0.3606688611779467
1.332243816713035 13.085243902306352 723.690285630571 43.733294747199416 0.3664003748665342
1.3592162300720494 13.085079533569829 645.2878357038672 45.73348200943333 0.37228388762257897
1.38611997137814 13.083885285941538 575.9368511690067 47.82855773597626 0.3783247284652025
1.4129425920162233 13.081648328969663 514.5789819300971 50.02307499595087 0.38452774529054456
1.4396584069571365 13.078313233832457 460.2476432817415 52.323244299329644 0.3909051546439184
1.4662202260937507 13.073776401604189 412.0755700488131 54.734801361571996 0.39746527374276813
1.4926153241293687 13.068025304016265 369.29543386649635 57.263879389615234 0.40421706860633916
1.5188101765389925 13.060972453537476 331.3086642446477 59.91704463133204 0.41117020754809064
1.54476602005961 13.052547407732646 297.5534473208968 62.7013353095343 0.41833511887073505
1.5704823243356016 13.042818131670614 267.51067032689645 65.62430427582814 0.42572305325199217
1.5959011474750882 13.03161101235612 240.74336660702735 68.69406576082254 0.4333461513700592
1.6209939912685833 13.01892682190945 216.88758543423208 71.9193466439425 0.44121751738493925
1.6457346132215425 13.004712868137263 195.61408490942188 75.30954271910393 0.4493512989661351
1.6700832753482202 12.988913836141375 176.60126674489302 78.87478049256154 0.4577627746398656
1.69402946929999 12.971528132249459 159.61595791606987 82.62569662795903 0.46646726440387465
1.7175191969132613 12.95247144222112 144.41327265106793 86.57297159837147 0.4754781482319448
1.740527682179314 12.931709758196739 130.81421625226258 90.73041913718636 0.4848191915963871
1.7630009794289594 12.909185223513438 118.62114904076131 95.1097359396971 0.49450308245325814
1.7849617540920615 12.884958330843908 107.68133168970367 99.72679597318788 0.5045563718147834
1.806315043022642 12.858857727326573 97.86036155601667 104.59587757980235 0.5149964229039381
1.82707375793838 12.83096885040386 89.04085670593328 109.73401756541412 0.5258481775372948
1.8471668162938715 12.801149865739303 81.1147004767439 115.15947633269937 0.5371377859199217
1.8666002025226056 12.769476646001815 73.97408310597572 120.89160484252544 0.5488918527627655
1.8852974668270117 12.735795781233419 67.54630863596469 126.95147286602639 0.5611394359110966
1.903282813708903 12.700242543760453 61.74960735865698 133.36204339017183 0.5739122576395784
1.9204708253451999 12.66263347678541 56.525933426757966 140.14836632592633 0.5872449404505042
1.9368585651578536 12.623042537247724 51.80656292761412 147.33615277342446 0.6011696020494544
1.9524163681747158 12.58143838436351 47.541412305566624 154.95639685069216 0.6157314188545934
1.9670909770554292 12.537729182254388 43.68573848426502 163.03966558196555 0.6309682227427745
1.9808792539763431 12.491992290264509 40.19495785282876 171.6217942587103 0.6469294962575607
1.9937552402972847 12.444204818059719 37.03459800707946 180.74034021169962 0.6636635147690543
2.0056551678350036 12.394262349072472 34.17119200310736 190.43658732613633 0.6812234069911772
2.0165870023631265 12.342251650306572 31.575573105386923 200.75595362444676 0.6996676006193852
2.026528419757852 12.288186074565091 29.21732210721794 211.74844931313635 0.7190603280159032
2.0354200755208085 12.231957905038477 27.07730530391298 223.46919239254973 0.7394721995063773
2.0432728226265473 12.173674884813767 25.131757333032127 235.97668363511792 0.7609733425726026
2.0500463472576644 12.113281585806421 23.36334799765979 249.3383467102687 0.7836500862405702
2.0557223505424433 12.050806485257137 21.75440617809761 263.62638822356786 0.8075898275455013
2.0602510257251487 11.986349413499148 20.294868655188957 278.9386631792495 0.8741694652856805
2.0632055326098193 11.920721442721762 19.00727812764842 295.5615140824274 1.0160055423396506
2.0642957898404446 11.85335308406544 17.881678387690766 313.67220132442037 1.1630193906473438
