M[M_sun], R[km], Lambda[1], P_c[MeV/fm^3], rho_c[fm^-3]
0.24162668629717493 15.618656898711224 2160425.4255784233 3.5677272577965504 0.1711233750220791
0.2536396754680113 15.277405744818939 1723280.8444939037 3.7847566838394138 0.1738873887587105
0.2660324746670846 14.981433324368945 1383193.0738801984 4.0112692127536285 0.17666506269633883
0.2788036454337934 14.723732201287712 1116621.8123673268 4.247522892407932 0.17945513279044528
0.29195433997571973 14.498642745052056 906151.5954073406 4.4941419398246865 0.18226414769042434
0.30548470646283415 14.301506762123157 738888.6533301282 4.751277146729422 0.18508771942192315
0.31939637846308255 14.128434698442481 605250.6221119994 5.019618629506333 0.1879326389822867
0.3336899835769688 13.97623811449648 497888.4553514607 5.299379664096513 0.19079531879570694
0.34836663023404624 13.84231102071627 411179.6959449043 5.5913012073871675 0.19368230574584863
0.3634236086810181 13.724307348603004 340822.4744245423 5.89553490679307 0.19658837446435365
0.37887074519245856 13.620299696261046 283455.5206565174 6.212951166961207 0.19952133927643806
0.3946976512248714 13.528730685751977 236536.95192409508 6.543818997499455 0.20247758543517125
0.4109160197158936 13.448141577414468 197989.87005259324 6.888817480525466 0.2054604309620844
0.4275187169216211 13.377300025755822 166201.09635960028 7.248661665643269 0.20847313500337256
0.44450736699637683 13.31516174395502 139897.52462727 7.623627124272795 0.21151151111261082
0.46188137979343974 13.260792075827926 118064.7251684439 8.014629493173342 0.21458120745596634
0.4796395558506077 13.213381037534825 99888.62782419386 8.42238841616 0.21768411604533
0.49778892091487015 13.172177781634844 84710.5333069805 8.847367239246056 0.22081803236306
0.5163207297274449 13.136569762570387 72000.23596763144 9.290394059390078 0.22398572847872364
0.5352309150283326 13.106006114199783 61331.12479469928 9.752373864427163 0.22719042852072943
0.5545303252347391 13.079963223295097 52353.561572489336 10.234115258162133 0.2304334818463601
0.5742022069313318 13.057955372817716 44773.1017648692 10.736121077333394 0.2337119924240643
0.5942547404180014 13.039669219997123 38365.14568567479 11.259572281605644 0.2370313521505913
0.6146814278734081 13.024593999544821 32936.390638865705 11.805435270799089 0.2403935597441144
0.6354749460935375 13.012509980133 28323.61087362626 12.374687783150275 0.24380024588118082
0.6566372084895363 13.003086376346834 24397.22097224481 12.968062070895982 0.2472498546341977
0.6781607978960446 12.99603187396824 21051.283450126335 13.586797690952087 0.2507462016205098
0.7000402238568993 12.991093338637723 18193.576113380226 14.2321320280211 0.25429239231971834
0.7222653515366425 12.988018696843808 15747.534532957146 14.905253116283422 0.2578904081920536
0.7448428337504162 12.9866598828718 13650.726559342716 15.60724666928195 0.2615407155834312
0.7677536904536055 12.986757677060197 11850.240261702304 16.33926550510719 0.2652440854059675
0.7909893480064133 12.988117937234298 10302.146590334149 17.102977390897845 0.2690057519946359
0.8145539346229075 12.990636774732772 8968.785678639419 17.899835192548068 0.27282814363440827
0.8384267080297754 12.994097802948868 7817.392632889038 18.731273772351763 0.2767129740986339
0.8625970823575247 12.998357008516633 6823.738880438823 19.598496321887026 0.28065947186347756
0.8870617686764108 13.003292574363435 5963.799363731008 20.503653040259366 0.2846746027774854
0.911812836679411 13.008798300875002 5218.415186420901 21.448535148217893 0.2887613744141543
0.9368227967463072 13.014668385847449 4571.925809540717 22.434715119608214 0.29292042998376194
0.9620909225015183 13.020865859133648 4010.353043604512 23.464038139878546 0.29715413604675744
0.9876032492302316 13.027262386788863 3521.669506600829 24.539008562607002 0.30146928498471376
1.013342819980464 13.033719821728646 3096.765667561852 25.661672778543696 0.305868294374496
1.0392919449687223 13.040173568158623 2725.705615897977 26.833778865732903 0.31035085946775365
1.0654350697029293 13.046502094388819 2401.9129164243795 28.058520347208233 0.3149264700192337
1.0917539008667712 13.052633298448425 2119.0517034798972 29.33807362975952 0.31959642146166645
1.1182414192450527 13.058470938887318 1871.5312182236744 30.674944625975208 0.3243637028328784
1.1448639577244157 13.063921791807735 1654.7925108657312 32.072751955849206 0.32923787294948303
1.1716173912305743 13.068944485948277 1464.4725301099802 33.53326077902122 0.33421549663791816
1.1984643961608832 13.073406015763812 1297.6128003038425 35.061036465277354 0.3393103409964112
1.225401018896643 13.077279447299562 1150.9604556522684 36.65829401760689 0.34452036564512645
1.2523880117709498 13.080450935799973 1022.0136447046795 38.32976785836138 0.3498581031273082
1.279422028572392 13.0829063293123 908.2653721983329 40.07799912780423 0.35532195649607184
1.3064564198334312 13.084505424131873 808.1463859319545 41.9083156286902 0.3609256517318602
1.3334856472583176 13.085233408918015 719.8436280354381 43.8239805431472 0.36666993995133107
1.3604876008072326 13.085045601602495 641.827176725567 45.83006864362735 0.37256474843451265
1.3874118798028208 13.083800783582724 572.8238078954099 47.93170866164674 0.37861892950463616
1.414260460206364 13.081530780957587 511.753103200472 50.133413280090934 0.38483692532223523
1.4409867483822514 13.078118065083606 457.7122905214238 52.440846663991984 0.39122804667548283
1.4675678270487664 13.073525208849093 409.77336014631476 54.86018760709085 0.3978027909654804
1.4939726044909298 13.06768084648404 367.2196074049828 57.397611375149104 0.4045701947279941
1.520181036297487 13.060562230998608 329.44637984652326 60.05973003594686 0.41154000257574036
1.54616119846202 13.05210154693007 295.85958593181783 62.85363176811671 0.41872272546593264
1.5718746429899573 13.042249514035717 265.9957680457361 65.78692393151998 0.42612970371988634
1.5972916904489083 13.030944568900008 239.36895011259733 68.86778028073823 0.4337731753508957
1.6223826378449422 13.018165610563544 215.6434625998562 72.10499275066836 0.44166635032467944
1.6471335646702068 13.003858377446177 194.47375923419327 75.50802829698264 0.44982349145213474
1.6714881561358939 12.987963073373917 175.57520337790442 79.08709133514489 0.4582600026980201
1.6954235948849963 12.970452007626987 158.67949642914266 82.85182161977295 0.46698689897648016
1.7188870394360274 12.951243745237534 143.57603543996774 86.8151064076028 0.47602646444226104
1.7419029170060023 12.930403026333666 130.04555336518058 90.98892853462763 0.48539473970490665
1.7643824478576189 12.907788658195798 117.91365695404255 95.38657445329744 0.49511052796713356
1.786310889239609 12.88338583620925 107.03729327062632 100.0224683778491 0.5051944200366582
1.807653539335306 12.857169596891849 97.27877617794604 104.91270010761176 0.5156704994622031
1.8283827970830695 12.829116962235359 88.51003018421846 110.07342043358818 0.5265599591239787
1.8484602031939383 12.799172807907405 80.62265545112962 115.52277725364863 0.537888240257093
1.8678574521477933 12.76732121362612 73.52912313814114 121.28079751971504 0.5496841064303186
1.886537318970905 12.733528694275703 67.14142447148642 127.36873753765894 0.5619768827776499
1.9044719145984181 12.697763754681654 61.38073729199207 133.80947591896435 0.57479756040929
1.921609872042296 12.659948537473202 56.185169928413394 140.6276115353152 0.5881787522512676
1.9379620747291353 12.620207956657925 51.49442874946414 147.85123596289415 0.602160390191386
1.9534609075144338 12.578373806400217 47.258999804623045 155.50933177825377 0.616780081932484
1.9681015192744518 12.534533160750176 43.42539168061442 163.63447861901366 0.632081970914684
1.9818367913826134 12.488602350024898 39.957340486516884 172.26099217177753 0.6481097053155853
1.9946423879195776 12.440587295678286 36.81572800058582 181.42796655808706 0.6649160356934782
2.0064960045048275 12.390484212356801 33.97182566313633 191.17709651950852 0.6825546292491744
2.0173769409165345 12.338313979443637 31.390424488211632 201.55425870715334 0.7010845133948863
2.0272306853065056 12.283980909993698 29.048350429184133 212.60990288003347 0.7205703495624226
2.0360653169096357 12.227588414102659 26.92105202132816 224.3979887633257 0.7410778441601733
2.0438365779213057 12.169070092500451 24.9885908476654 236.9808291440984 0.7626883295745334
2.0505233677245713 12.108441540663721 23.232411646591384 250.423729915608 0.7854797969859447
2.0561188048130044 12.04574250244063 21.633209530189166 264.80072127969936 0.8095439859782166
2.0606009391558833 11.980995642459035 20.179802988613055 280.193065097983 0.8349796532615813
2.063942047795037 11.914190110260334 18.854239022064768 296.68991815152526 0.8618926075954317
2.06613070321963 11.845352244882054 17.650113046118395 314.3906894105542 0.8904009646339582
2.0671560523728716 11.774542540943205 16.552404977528603 333.40560630079653 0.9206342060384226
