M[M_sun], R[km], Lambda[1], P_c[MeV/fm^3], rho_c[fm^-3]
0.24162668629717493 15.618656898711224 2160425.4255784233 3.5677272577965504 0.1711233750220791
0.25363797749170014 15.277462506549627 1723333.400026763 3.784723448801088 0.17388697449999088
0.2660289015007839 14.981520778920315 1383251.6959599513 4.011199348075872 0.17666421842293945
0.2787980133466323 14.723852102808795 1116716.5402845656 4.247414036524597 0.1794538702262409
0.2919460726351256 14.498781302198946 906211.1877609373 4.493991238410331 0.1822624695951995
0.3054747084787924 14.301625864098737 738964.5572367929 4.751079485251107 0.18508558430071473
0.3193837916507909 14.1285804281649 605336.4553154224 5.019372554190923 0.18793008585591298
0.3336750550984081 13.976381889553055 497989.665294727 5.299078699387318 0.19079228858047612
0.348347682640418 13.842433371258833 411266.43683557154 5.590944604164734 0.1936788555115734
0.36340229283554804 13.724429597271735 340903.41158359795 5.8951146569702875 0.19658442738908374
0.37884832984396677 13.620423980694563 283538.1699385509 6.212462188311291 0.19951688037991944
0.39467091958749684 13.528871344047767 236613.9875462241 6.543261800010555 0.2024726995659305
0.4108864245987489 13.448278077929515 195552.44866952504 6.888181312176565 0.20545501308546749
0.42748556719356967 13.377454437413073 166254.89102941324 7.247940560815691 0.20846716948793734
0.4444705867871139 13.315286243461827 139950.296453224 7.622823078145285 0.2115051103884359
0.4618405583187425 13.260915392348235 118109.19528694885 8.013728487423116 0.21457423744805648
0.4795961779482421 13.213471886612492 99929.88368243052 8.421383429830962 0.21767655995308074
0.4977429084991394 13.172267302322156 84748.28543872507 8.846261979617683 0.22081002981110945
0.5162697410699051 13.136664499613033 72036.84037786255 9.289170648057587 0.2239771155866721
0.535175756979907 13.106083937273949 61362.16146009202 9.751024012303228 0.2271811867185706
0.5544707752606579 13.080028722655905 52376.5489726996 10.232630172744527 0.23042359175681254
0.5741398082627567 13.058016455225934 44391.27376179969 10.73450721218129 0.23370163090987492
0.5941901727294651 13.039707363738984 38384.878173118144 11.257805378268346 0.23702031250656544
0.6146100106324033 13.024638948133989 32951.61005006756 11.803504898938089 0.24038181986244517
0.6353983846711507 13.01255964177578 28337.705405855864 12.372582862031772 0.24378778248704674
0.6565532482117161 13.003111165921277 24218.357170322193 12.965792266142712 0.24723688136100525
0.6780759717877302 12.996047320146744 21064.422290245413 13.58433078756515 0.25073246656337433
0.6999505588733792 12.991112560027343 18204.201106818153 14.229454808821442 0.2542778682748985
0.7221697043714149 12.988027332399325 15757.041143087505 14.902351515278355 0.25787506633377305
0.7447438158148691 12.986656581694294 13658.764814878754 15.604134014046794 0.26152480575457493
0.767649810295152 12.986743515333576 11857.830353825584 16.33589966737339 0.2652273075490458
0.7908795385276317 12.988113973293201 10308.349380489311 17.09934149123627 0.2689880718458006
0.8144379668481385 12.990619174495457 8974.368372715266 17.89591123298565 0.27280952472686115
0.8383066158849527 12.994070997806755 7822.614661563754 18.7270791520894 0.2766937019888831
0.8624718014499025 12.998330807691287 6828.444822198382 19.593976533607222 0.28063919442394736
0.8869320821217717 13.003266948251742 5967.917859601351 20.498786347555228 0.28465327617546327
0.9116774970310381 13.008753803465531 5222.236014650909 21.443298326949986 0.28873895186200044
0.9366822979336508 13.01464954402217 4575.422645906315 22.429129976008507 0.29289723247694727
0.9619446113166332 13.020822268377902 4013.459435502313 23.458034630039272 0.29712975400948355
0.9874552512410858 13.027220067179023 3524.5713093038225 24.53255845168345 0.30144366175602594
1.0131838332718166 13.033682130493723 3098.9920217053786 25.654801022763618 0.3058417749455152
1.0391300739762623 13.040126820990817 2727.799511013074 26.82640151444086 0.3103229891630086
1.0652701309903383 13.046467176690193 2403.8002925978685 28.05060289630769 0.3148971799255811
1.0915828111601031 13.0525925694881 2120.7669573719563 29.329644125702867 0.3195660804228044
1.1180667452267306 13.058424519698649 1872.9447911444086 30.665902502484908 0.3243318061563514
1.144683004332507 13.063890411113206 1655.9895686487316 32.06305482611094 0.3292043365025718
1.1714324314782336 13.068910554565605 1465.7395078971422 33.522939589812566 0.33418071316612585
1.1982793294455536 13.07338585206692 1298.7576697707052 35.0499706639027 0.3392737493912108
1.2252061302138502 13.07725705500722 1151.973530298489 36.64651569655593 0.34448237060466097
1.2521893213302142 13.080428668198959 1022.7915765583382 38.31714161033667 0.34981810594151463
1.279217986771865 13.082891803059722 909.0791280500421 40.064557845582 0.3552803736593185
1.3062502506763227 13.084501582075655 808.8634508150922 41.89400379632858 0.36088238489439795
1.3332743302289627 13.085230269883246 720.5119806047985 43.80863783703616 0.3666243334941057
1.360272148256184 13.085045885516925 642.3977260891813 45.813727189041664 0.37251722970439627
1.3871930945980326 13.083813505360528 573.3297908485073 47.91429871823781 0.3785693751856423
1.4140335645413276 13.081535752034405 512.2277964258341 50.11474411264452 0.38478461225766564
1.440762085444964 13.07814776945754 458.13060667910395 52.42094788653133 0.39117341208800355
1.4673378675329465 13.073554832088641 410.1769892841381 54.838971187689005 0.39774568018014045
1.4937440602812717 13.067734864197528 367.5684814785999 57.37498215499542 0.4045104411191843
1.5199491500439515 13.060632369401754 329.7574071319828 60.03558509163865 0.4114774265864711
1.5459281573537733 13.052183718807207 296.13747682641633 62.827859710356854 0.41865713352996436
1.5716404823128927 13.042343199909375 266.23030188646754 65.7594041331453 0.42606088707630285
1.5970558361223766 13.031054837095498 239.60493756293414 68.83838202613651 0.4337009087394705
1.6221498313336278 13.018284317305518 215.85991236842662 72.07357429767384 0.44159039054901633
1.6468986817235864 13.004001777156997 194.66836162249828 75.47443584122924 0.449743575795982
1.671252877090898 12.988126565744398 175.74925914906865 79.05115786560597 0.45817584717838583
1.6951754658103293 12.970618705871022 158.83222164338505 82.81354904181678 0.4668989487038048
1.7186715542549602 12.951481229980253 143.7073335899032 86.7741226967719 0.4759336565015984
1.7416711202123796 12.930625324684211 130.17978464557459 90.94521662402181 0.48529749679358464
1.7641522391366338 12.908029608293912 118.0344450018466 95.33971370781995 0.49500770502805996
1.786083115230464 12.883655408439292 107.14880679297873 99.97241800858929 0.5050864135111693
1.807430085981203 12.857464224912242 97.37916655502896 104.85920084027657 0.515556893655878
1.8281610732131763 12.829425332131313 88.59876878902703 110.01596340006517 0.526439462621674
1.8482438150781395 12.79951227523786 80.70748544591312 115.46127240107504 0.5377611924553689
1.867644851045503 12.767683355507714 73.60778922623827 121.21490695430678 0.5495499773853458
1.8863306785429073 12.733920331018021 67.20804406027351 127.29809172998868 0.5618350972053485
1.9042713637321296 12.698183712020606 61.44351582548557 133.73392986296395 0.5746484090379029
1.9214227024782808 12.660425671873195 56.24564391045177 140.54647258867936 0.588020662727639
1.937768562825677 12.620656534227713 51.54817349151859 147.76401879375786 0.6019926236272276
1.9532885033317602 12.578912314733726 47.30543197190596 155.41579020571024 0.6166028112888706
1.967936305325792 12.535089269866162 43.469472783156576 163.5337528449544 0.6318933685476622
1.9816761977389947 12.489179074116285 39.991286609930036 172.1527458246051 0.6479098402709422
1.9945042222324894 12.441232862470788 36.85168638194856 181.31151404427777 0.664703915824869
2.0063545336400033 12.39112400146243 34.00629601044747 191.05168253130194 0.6823291710184609
2.017246114321048 12.338986382391775 31.422745454551816 201.4190501104954 0.7008445314730467
2.0271076134906907 12.284679579036716 29.076091684901574 212.46405260114312 0.7203147845373762
2.0359451298449627 12.228294245245488 26.94782263644216 224.24068610418325 0.7408059427690004
2.0437417685399137 12.169847651456687 25.013962853750865 236.81098671524265 0.762398648054773
2.0504486003973805 12.109273679801342 23.253929368110853 250.23986348885103 0.7851698397513976
2.0560504018950394 12.046596253211852 21.65342266601633 264.60177632968015 0.8092129300229267
2.060547867709088 11.981885293175186 20.19840804851858 279.9775307715967 0.8346254966792004
2.0639045096928275 11.915118565376746 18.87226603280159 296.4565123731443 0.8615144484125469
2.066107257806103 11.846317559924856 17.665546932369917 314.1371532258051 0.8899951030689045
2.0671509478455 11.77554508438825 16.56791130143553 333.1302696711727 0.9201993338256665
