M[M_sun], R[km], Lambda[1], P_c[MeV/fm^3], rho_c[fm^-3]
0.24162668629717493 15.618656898711224 2160425.4255784233 3.5677272577965504 0.1711233750220791
0.25364072255104514 15.277384370952499 1723261.4772338376 3.7847764182563495 0.1738876347386974
0.26603443524884723 14.981397084243843 1383172.8626702158 4.011310697657472 0.17666556401691907
0.2788072160802101 14.723670301277899 1116525.9479125128 4.247587530495524 0.17945588249485384
0.29195908635830187 14.498566773734543 906054.0141894836 4.494231426418947 0.1822651441444202
0.30549087502346545 14.301430718193782 738842.7211191539 4.751394519351438 0.18508898727024994
0.31940399183322793 14.128352356058706 605235.7670516694 5.019764751876953 0.18793415505827993
0.3336999128962644 13.97618685549188 497830.45996713475 5.299558382075651 0.1907971181892101
0.348375720072383 13.842249659883334 411136.81991949823 5.591512966288841 0.19368435457147518
0.36343543372432796 13.724189868640082 340771.9870996239 5.8957844627103455 0.19659071834634037
0.37888524669938817 13.62019927418696 283408.6461853875 6.213241538550493 0.19952398711570218
0.3947139142735456 13.528639438131401 236488.09570878305 6.5441498823847075 0.2024804868486113
0.4109342108568964 13.448076972617397 197953.4234999017 6.889195264604638 0.20546364832983358
0.4275377424620389 13.37723679294508 166159.75018558372 7.249089892389355 0.2084766776134978
0.4445294892091874 13.3150779989832 139877.30471860297 7.624104609286865 0.21151531220034467
0.46190482322224896 13.2607270109395 118043.85083525465 8.015164562522312 0.21458534664996562
0.4796641133160067 13.213320421618576 99857.94745421171 8.422985240295192 0.2176886033284818
0.49781653314947677 13.172125407192084 84692.19883979326 8.848023616907994 0.220822784817781
0.5163506430945465 13.136523624148028 71981.36321320092 9.291120609625699 0.22399084343767756
0.5352636025478958 13.105949038669845 61313.03549462005 9.753175511100807 0.2271959170181935
0.5545649993986352 13.079902294532827 52335.35059901228 10.234997224228918 0.2304393553963088
0.5742422553360328 13.057918515833077 44760.32855854857 10.737079530315851 0.23371814598910323
0.5942928140321425 13.03959179237691 38354.23726874317 11.26062163064459 0.23703790850237594
0.6147242348721716 13.024560662413373 32925.6790802576 11.80658171193562 0.24040053201901931
0.6355195534239658 13.012495150871201 28314.749820516045 12.375937898852543 0.24380764790901624
0.6566856516829909 13.003058774471828 24389.355438890012 12.969410120633832 0.24725755953370546
0.6782114144373316 12.996014422726978 21044.20895428112 13.588262810767182 0.2507543590151112
0.7000931847580042 12.991087833114463 18187.449795429606 14.233722069743987 0.25430101837366703
0.7223206144585378 12.988020167443599 15743.187693625596 14.906976436076768 0.2578995200334113
0.7449019788311186 12.986651532536143 13645.572978931643 15.609095351127644 0.26155016481874727
0.7678149856649715 12.986754070819012 11845.988237382711 16.341264574756813 0.2652540502667869
0.7910537008694878 12.98812671704252 10229.575274542156 17.105136876165233 0.2690162528402281
0.8146216686013049 12.990646013611771 8964.63958426694 17.90216578586647 0.2728392021330587
0.8384970878238119 12.994103074052955 7814.233982411962 18.733765138626232 0.2767244206375975
0.8626709574177016 12.998371298141967 6820.93941441655 19.60118084198003 0.28067151561209663
0.8871389537349936 13.003312301606655 5961.212961848612 20.506543627941987 0.28468726978090336
0.9118914112975415 13.008802858078276 5216.134615957214 21.451645601280962 0.28877469247342363
0.9369040124685043 13.014698674656861 4569.664154937872 22.43803248436812 0.2929342084283535
0.9621774242216576 13.020887724275381 4008.4958933399134 23.467604028917506 0.2971686181816735
0.9876951924748962 13.027282490408792 3520.2107137305557 24.542839751148076 0.3014845044780369
1.0134349012810362 13.03375079625955 3095.3633624184545 25.665754441018187 0.30588404629606886
1.039385734138074 13.040193958975985 2724.2871280103536 26.83816087844481 0.31036741392271217
1.0655337367026274 13.046526993257721 2400.913647715504 28.063223210783644 0.31494386795656093
1.091854116607149 13.052654216193083 2117.9879872513297 29.34308068209447 0.31961444377572645
1.1183463899095547 13.058488910236216 1870.6554339349325 30.68031561720194 0.32438264935246225
1.1449723433884746 13.063950814872205 1653.836586898517 32.07850346988113 0.32925773803140757
1.1717290618185456 13.068956564775004 1463.8358491107124 33.53939163200253 0.3342361582445826
1.198577218008321 13.073427520538488 1296.9221616080156 35.06760968372424 0.3393320768478115
1.2255164800831782 13.077300263848278 1150.3737311862385 36.66529053429436 0.34454293532492275
1.2525075710092015 13.080467358904468 1021.3818868120136 38.337268128983624 0.3498818623404166
1.279541872678948 13.082910379919273 907.8071870217951 40.085983609078035 0.3553466578136901
1.306580550092959 13.08451203135758 807.7864910491995 41.91681730745788 0.3609513535947736
1.333611185770025 13.085230611615476 719.4628058557855 43.83309468358 0.36669703189018366
1.3606155980919163 13.085040159235893 641.4288593004519 45.8397761575866 0.37259297656644
1.3875414585859698 13.083794187232279 572.536869470114 47.942050989484244 0.37864836710823774
1.4143925016549521 13.08151809718539 511.4729247390013 50.14450376125257 0.38486800207264643
1.4411201220500247 13.078097696459869 457.45920530620225 52.452667701654484 0.391260502815944
1.4677028598989885 13.073497608723267 409.5353432553843 54.87279151273173 0.39783671841270263
1.4941088143572605 13.067645790976659 367.0293443505685 57.41105469603147 0.4046056925017421
1.5203176039760964 13.06051938314126 329.26896584326727 60.07407393420983 0.4115771773818747
1.546299223039031 13.052052459980143 295.67953210379176 62.8689424376767 0.418761692337215
1.5720139449137784 13.04219001472963 265.8142071907425 65.803273056993 0.4261705867207449
1.597435825725436 13.030886340861052 239.23973652098735 68.88524554310251 0.4338161083530695
1.6225227132509406 13.018088595642034 215.5247133653616 72.12365838496902 0.44171147786149145
1.6472746635842341 13.00377227260128 194.36019640317548 75.5279857080379 0.44987096966007817
1.6716240946886007 12.987866729387934 175.4709392987689 79.10838389501124 0.4583097669588623
1.6955627353964646 12.970344280149883 158.58726228075878 82.8745599577152 0.4670391516108467
1.71903514545461 12.951150424354374 143.47677934680905 86.83945574309953 0.47608160370706015
1.7420337746588161 12.930253487404736 129.966124928567 91.01489900597215 0.48545251444426135
1.7645189391650633 12.907640324090423 117.84226747279672 95.41441606167514 0.4951716186726433
1.786445387154377 12.883227305620556 106.96786499102615 100.05220536014029 0.5052585911543401
1.8077875496288747 12.857002107545664 97.21956608254045 104.94448656094085 0.5157379980624744
1.8285130309186926 12.828927071603685 88.45383520230992 110.10755881556264 0.526631552719576
1.84858928805424 12.798973910111236 80.57663734620252 115.55932108229071 0.5379637271967618
1.8679822216349944 12.767103356826224 73.4861033715885 121.3199476300951 0.5497638017081375
1.886660020954369 12.733295056840369 67.10261485602196 127.41071357240868 0.56206112834446
1.9045902218405941 12.697515382062287 61.342510767904656 133.8543640550331 0.5748861835275322
1.9217427060967598 12.659743457294436 56.152264040603356 140.67582349203929 0.5882726874770466
1.9380729022644 12.619923312784936 51.463546307151894 147.90306023095607 0.6022600767494213
1.9535675758830058 12.578070608185199 47.22817614730248 155.56491467857555 0.6168854170925205
1.9682021028470327 12.534209485538568 43.39830226766189 163.69433126240156 0.6321940410409341
1.9819323330801852 12.488262181047086 39.93308298000016 172.32531449757104 0.6482284694573055
1.9947333426246923 12.440228585108258 36.795144085836846 181.4971661207267 0.6650420836563325
2.006580388525311 12.390105131227841 33.95104593085718 191.25162232557628 0.6826886051845451
2.017449596846446 12.337895677323203 31.370621043647525 201.63460603997262 0.7012271219850297
2.027301586603519 12.283561165474664 29.031465339514845 212.6964162771702 0.7207216995747812
2.036128804712957 12.227146828586886 26.905814479549363 224.49146825007023 0.7412394256784421
2.0438923450002493 12.168607366019884 24.97425651514131 237.08172979092282 0.7628603744462603
2.05057172662069 12.10795408957698 23.21763318499534 250.53299888443644 0.7856639997683518
2.056158115900478 12.04523762082993 21.621336302217465 264.91895315203203 0.8097407306829052
2.060632592192306 11.980464473064604 20.167540361485734 280.3211581664977 0.8351901301917877
2.0639665222092387 11.913637575326877 18.84548122604091 296.8286346632422 0.8621173531997924
2.0661434619505905 11.844778210575738 17.640269552865373 314.5413725521692 0.8906421787065909
2.0671604812429445 11.77394619417915 16.543894685134543 333.5692490431417 0.9208926666782667
