M[M_sun], R[km], Lambda[1], P_c[MeV/fm^3], rho_c[fm^-3]
0.24162668629717493 15.618656898711224 2160425.4255784233 3.5677272577965504 0.1711233750220791
0.25364463161867595 15.277278509459416 1723192.0996802028 3.7848317588669267 0.17388832453271105
0.2660404644254178 14.981252649347075 1383000.1340781883 4.011427034117886 0.17666696987438607
0.2788170625395029 14.723505656771218 1116441.8880122253 4.247768798085343 0.1794579849257313
0.2919719751451293 14.498366109033443 905913.693728235 4.494482381153904 0.1822679385836375
0.30550782727529496 14.301195685883366 738583.4354530408 4.7517236816259585 0.1850925428510304
0.31942503345645795 14.128109639724075 605047.572057576 5.020174545761851 0.18793840682800167
0.33372402454228206 13.975931873907946 497662.2607858975 5.300059595501796 0.19080216457674792
0.3484064495112692 13.841981673375964 410978.3011556253 5.59210685002127 0.19369010055995822
0.36346992898987485 13.723945800080061 340642.9742626177 5.896484358180428 0.19659729191270905
0.37892472872944044 13.61995171528386 283282.91969137813 6.214055914516447 0.1995314132439392
0.39475669234350036 13.528434472630803 236383.52772522837 6.545077892678296 0.20248862424520558
0.4109834989617188 13.447844200973833 197848.99250819586 6.890254823064922 0.20547267197430782
0.4275924971317727 13.377019063338144 166066.9765933875 7.250290940587365 0.20848661357743767
0.44458865798579417 13.314884773495173 139784.44451788854 7.625443827063931 0.21152597323496433
0.4619710223518228 13.260531825373883 117967.99245047942 8.01666530722836 0.21459695612356688
0.47973750248448793 13.213114548504159 99802.68101834979 8.424659213054985 0.21770118926346443
0.4978950139030937 13.171992361670284 84633.90288879692 8.849864645044898 0.220836114648103
0.516434462136632 13.13637785898461 71930.50826489065 9.293158484308782 0.22400519020249313
0.5353544304844113 13.105819755179683 61266.52272409079 9.75542404788821 0.22721131169125997
0.5546621561526837 13.079803706165238 52298.18923548057 10.237471078091726 0.23045583029798158
0.5743463890446334 13.057840150295716 44322.29448942488 10.739767952126696 0.2337354064898977
0.5944036953956852 13.039508415910573 38322.268868573985 11.263565046886775 0.23705629902032208
0.6148424947244734 13.024486288002409 32896.26260513739 11.809797508625316 0.24042008942833096
0.6356492342068117 13.012426612115291 28288.334427693946 12.379444546578126 0.2438284110304031
0.6568197596337038 13.003020839043904 24366.729745394798 12.973191516464519 0.24727917244163933
0.6783528541428002 12.995969314818982 21024.39311310522 13.592372646367483 0.25077724147864283
0.700241923557338 12.991053156358506 18169.118597359546 14.238182378424499 0.25432521576594425
0.7224771120075071 12.98800880490347 15726.429060699593 14.91181066670656 0.25792508043302803
0.7450573798624242 12.986630496784404 13632.462422665785 15.5039523920376 0.26096340998560846
0.7644067712757434 12.983547221491454 12071.890102575899 16.400446661241144 0.3992797876545972
0.778944973776355 12.97260568313127 10968.56703883923 17.2929111911842 0.5085759523395177
0.7904219509968597 12.953528491996511 10109.98905570933 18.29085749850233 0.6122382322775995
0.7996623880312428 12.926488163042997 9400.713420406053 19.397399131042913 0.7078910996352649
0.8073369832508609 12.89220716190571 8785.841149407133 20.608974290761108 0.7988970053553394
0.8138719297518913 12.851047588446349 8232.69385099584 21.92543176726218 0.883070731742522
0.819644236019213 12.803562552596919 7720.0861564227225 23.347653808892744 0.9631458537445688
0.8249582914501961 12.750356174573119 7233.757757554445 24.87481653598022 1.0380041971957914
0.8300396896997473 12.691883987296434 6765.697694762773 26.506714903539986 1.109369980569501
0.8350532160354305 12.628632086648732 6310.706073174358 28.24709689253912 1.1796425554739045
0.8401202442223279 12.56099805489235 5869.913180215994 30.098452537113797 1.249551871962092
0.845364144411118 12.4895944859308 5441.681788003702 32.06327234214896 1.3200546618584976
0.8508758973354988 12.41503204533834 5026.561357805953 34.14530662080109 1.3926686400088908
0.8566868140890719 12.337697896860467 4628.11206986351 36.351799118194116 1.469784079501187
0.8627455782616515 12.257678385247724 4248.388276839087 38.69026508350114 1.5551648436856331
0.869143971740898 12.176333305304423 3888.530844153814 41.171496428899935 1.6558741498079792
0.8756786770396842 12.093692307679424 3553.8722846913015 43.81119672177272 1.7884503786523713
0.8822793291057828 12.009699874504147 3244.24821493612 46.620540606335624 1.8699286104759418
0.8896116404858281 11.922019543494669 2942.2801494398655 49.553964620619055 1.8899108582017352
0.8979344713901977 11.832092495416438 2650.678518263575 52.609776968580185 1.910207495809841
0.9073337361734419 11.741340245186935 2372.4166301005107 55.787759015138775 1.9309184289745327
0.917779105057836 11.650823587494125 2112.1235216018536 59.10009428192597 1.9522225362933407
0.9292952278428094 11.561197129260957 1871.302644882481 62.55020634220834 1.9741952763723327
0.9418491931012519 11.473220746498974 1651.1137657634276 66.14916400175572 1.9969540707309692
0.9553822695338606 11.387435960198774 1452.0236012522478 69.89820724967137 2.020531632763531
0.9698093587034368 11.30401323287126 1273.4534779522403 73.81118154994725 2.045041494689821
0.9850911467966362 11.223245391005632 1114.4959790730304 77.89584151066992 2.07054251234202
1.001137675296441 11.145430217753919 974.2097221636018 82.16111264455701 2.097085327380045
1.0178676621250362 11.070405604970887 850.6833640436613 86.61704982488152 2.12472254818504
1.0352144076755048 10.998420066000147 742.5463705034574 91.27483450548783 2.153512989189393
1.0530961367656837 10.929085928700545 648.1187779814776 96.14679858514168 2.1835217252190025
1.0714246783893202 10.86261334765293 565.9599972782511 101.24388212239627 2.2148025039928814
1.090132151447729 10.79868707017611 494.4160506739569 106.57974364683292 2.2474256874702174
1.1091347809313696 10.737238877804009 432.45211656711535 112.1700211636508 2.2814730404987964
1.128355393360331 10.678037133581512 378.6503894941831 118.02984939746678 2.3170204789998228
1.1477420960097273 10.620920478024216 331.98299224579375 124.17376685992816 2.3541369495569704
1.1671952175668379 10.56579283734736 291.53722671803985 130.62181368019824 2.392926443180703
1.1866587966021096 10.512243330641786 256.46704252487615 137.3929387276659 2.4334820485759283
1.2060699495984613 10.460191713398782 225.98629648219858 144.50816397165988 2.475907486284982
1.2253703137210739 10.409472822093067 199.49581980094575 151.98734778165752 2.5202939412507392
1.2444886473919847 10.35982029216719 176.45917807885363 159.85804197400208 2.566781884558882
1.263351352408921 10.311091575261383 156.40702460619892 168.14405382457156 2.615480026433104
1.28193285424513 10.263108288984235 138.89626621350456 176.87530486643502 2.6665343146524707
1.3001436582563677 10.215642784453527 123.61280364939793 186.08159175942825 2.7200830167071683
1.3179562464234846 10.168591020409615 110.24979607234906 195.79606705914063 2.7762806313379786
1.3353167764410725 10.121768108104462 98.52956391897762 206.05544108096865 2.8352985950920053
1.352147500709063 10.075031140635202 88.25495878830465 216.89898057221265 2.8973170296237587
1.368441394497105 10.028168091879175 79.21632039996464 228.3689821211626 2.9625269211687746
1.3841236723980448 9.981192134140286 71.26180020083939 240.51201585417817 3.0311378314076243
1.399172110891359 9.933879295293492 64.24872234828892 253.3796434721273 3.1033818757525085
1.4135286398962958 9.886016877100028 58.044943869297484 267.0269063827642 3.17950060984973
1.4271545879835343 9.837794661188106 52.56594706791933 281.51426513573296 3.259757396437796
1.4400196294213092 9.788841010891197 47.70895080355174 296.90889024372177 3.3444450038450513
1.4520895071445938 9.73915725271472 43.39440669217036 313.2835390951473 3.4338743478465097
1.463334915541407 9.68870507435581 39.558698756646585 330.7183527966888 3.5283850875596867
1.4737037714250705 9.637304199892181 36.14342808249592 349.3010992436644 3.6283438130224126
1.4832014394189168 9.584959175605466 33.092632100701735 369.12907817152796 3.7341549825320404
1.4917668365035228 9.531667408752224 30.3822316049094 390.3083584109889 3.846249560354434
1.4993934095337738 9.477249365948195 27.94981638993251 412.9573638896817 3.965108465987628
1.5060480659332915 9.421748121391733 25.77461128651227 437.2065982869465 4.0912536384755676
1.5117239967954283 9.365125475797361 23.82375593789062 463.20015842180595 4.225252416089928
1.516397295646671 9.307343133747079 22.074374222785934 491.09838958010454 4.367730760886167
1.5200550591037423 9.248390291576174 20.474046186250394 521.0782389462574 4.519364629790674
1.5226728043033528 9.188245317372992 19.091315401430947 553.3381968880369 4.680910908518685
1.524256938395827 9.126899060189999 17.82094467875188 588.0977094739956 4.853185698630567
1.5247844820071752 9.064412749991893 16.676715130006656 625.6030530867677 5.037099946233102
