M[M_sun], R[km], Lambda[1], P_c[MeV/fm^3], rho_c[fm^-3]
0.24162668629717493 15.618656898711224 2160425.4255784233 3.5677272577965504 0.1711233750220791
0.25364151193280166 15.277361974693955 1723171.9436299491 3.7847910012110844 0.17388781650819313
0.2660367354213818 14.981326485394964 1383104.9547490017 4.011341353560195 0.1766659344754116
0.27881016963448524 14.723607110882073 1116533.164756909 4.247635296093463 0.17945643650380871
0.291962331313961 14.49851761156515 905996.8513377047 4.494297554714552 0.1822658804983393
0.3054955038204256 14.301351185041195 738770.2396762 4.7514812552381525 0.18508992418336437
0.3194097758960528 14.12828288951935 605199.4746374325 5.019872733847074 0.18793527541289715
0.3337059037356523 13.976102388500623 497772.2573421205 5.2996904524418325 0.1907984479186532
0.3483846082769423 13.842164401779309 411091.70785874804 5.591669454359621 0.19368586863660836
0.36344521059401574 13.724104139003831 340735.977200446 5.895968883540598 0.1965924504658057
0.3788962971364693 13.62011736735314 283358.96432330884 6.2134561232457735 0.19952594386974634
0.3947250699168191 13.528584361746601 236460.27296485627 6.544394407714912 0.20248263100541966
0.4109472117911028 13.448017246008309 197926.3656441562 6.889474450226495 0.20546602599174502
0.42755204834715294 13.377178288849665 166134.10119201607 7.249406357357965 0.2084792956470801
0.44454527455437093 13.315042673590842 139851.13247796017 7.6244574785244374 0.21151812126636993
0.46192258568471317 13.260675131625208 118019.31906519113 8.01555998972571 0.21458840559907308
0.4796841613554001 13.213263925748983 99841.25871900904 8.423426307992845 0.2176919195409668
0.4978373256824995 13.172083900041143 84676.96285231717 8.848508698485734 0.22082629701566325
0.5163722763191886 13.136489527275957 71966.30560744937 9.291657553646079 0.22399462355705557
0.5352875117209163 13.10591842845896 61301.055809603946 9.753767957034688 0.22719997321665678
0.5545905578118315 13.07988742485018 52322.83083853955 10.235649032645552 0.2304436961860923
0.5742685187694931 13.057904272480354 44751.6744610527 10.737787868945297 0.23372269374252014
0.5943220827906225 13.039576409129316 38346.552183619424 11.26139714960668 0.2370427539588851
0.6147553687502371 13.024538329765742 32916.945896837846 11.807428991142686 0.2404056848902524
0.6355517432091923 13.012467154918495 28307.99138897265 12.3768618038829 0.24381311841925749
0.6567211488022553 13.003043499451321 24383.52893460139 12.970406408867241 0.24726325390870038
0.6782489095857808 12.995995775329634 21039.314145287775 13.589345626482304 0.25076038784290927
0.7001325246854126 12.99107842663335 18182.91239240465 14.23489721689973 0.25430739360434
0.7223617212972919 12.988015433867915 15737.562473222923 14.908250091467194 0.25790625432956854
0.7449448044874261 12.986647896005538 13641.688165408303 15.610461664015174 0.2615571485039172
0.7678613364479687 12.986760914321154 11842.527369670963 16.342742043299147 0.26526141507690854
0.7911017266903629 12.988118213265208 10295.128615139825 17.106732912957543 0.2690240138266857
0.8146714136319794 12.990654065485009 8961.686625302847 17.90388829484516 0.27284737531499725
0.8385489834173506 12.994114814576717 7811.832537539297 18.73560648077494 0.27673288065203483
0.8627262987635435 12.998371807782792 6818.922401211669 19.603164952813557 0.2806804170660934
0.887196419146547 13.003332123629184 5959.603189535045 20.50868005360477 0.28469663192941574
0.9119510005303915 13.008818760559285 5214.692872623073 21.453944541474225 0.288784535869588
0.9369661683759898 13.014707912719782 4568.320979226407 22.44048436419583 0.2929443921412691
0.9622404917078049 13.020904528581754 4007.15973720475 23.470239608812022 0.29717932205473224
0.9877594889919107 13.027298954076647 3518.969643245811 24.545671432049645 0.30149575340199675
1.0134978273059676 13.033755308321838 3094.123534981849 25.668771264077343 0.3058956887972614
1.0394571499984266 13.040212444151758 2723.4573416261833 26.84139971359209 0.31037964965868303
1.065605889900106 13.046544434899616 2399.933720454269 28.06669921323809 0.3149567272011216
1.0919297311140423 13.052673841493624 2117.2516902888906 29.346781535108338 0.319627764574241
1.1184239320748908 13.058503670606681 1870.0111213962973 30.68428549078555 0.3243966533387698
1.1450508912162887 13.063968884688268 1653.205059687355 32.082729410400596 0.3292722579467941
1.1718087800474393 13.06897960515103 1463.2313328479152 33.543923192384746 0.33425143007029406
1.1986599364901396 13.073433979262234 1296.4315339895113 35.07246824347262 0.3393481427877409
1.2256029734298628 13.077307794698989 1149.9414048824608 36.67046199810174 0.34455961766663995
1.252593318863479 13.080478694256787 1020.9902154089657 38.34281197585615 0.3498994240319767
1.2796310321549629 13.082925343649727 907.4406546127523 40.09188539150782 0.35536491595686975
1.3066710633947192 13.084518697233975 807.4027411084323 41.92310141214593 0.3609703513952833
1.3337040332939765 13.08523699579391 719.1249921856745 43.83983153891951 0.36671705730829773
1.3607088275058052 13.085041212740864 641.1534061622605 45.8469516521232 0.3726138419298352
1.387637416270913 13.08378620062435 572.3028705987628 47.949695760222646 0.37867012659354493
1.4144905264848366 13.081509756576999 511.26099924818493 50.15270160182027 0.38489097332533784
1.4412183433838877 13.07808438681728 457.2637757736686 52.46140560270488 0.3912844938184198
1.4678046788651067 13.07347502048799 409.37663463725295 54.88210814934008 0.3978617971228917
1.494209896901233 13.067619422930974 366.85616628202905 57.42099187524797 0.404631932129778
1.5204199501597302 13.06049088690581 329.1245811160268 60.084676875399474 0.4116046568212818
1.5464020306352761 13.052017274885184 295.5614621701411 62.88026008082267 0.418790496638814
1.5721166046495336 13.042149095285092 265.7013903021748 65.81535840207931 0.42620080761386575
1.5975394639131884 13.03083741405019 239.1358061522474 68.89815602406645 0.43384784481918875
1.6226228183990918 13.018040166328767 215.41763318072216 72.13745628214694 0.44174483676603205
1.6473785061242683 13.003708508560644 194.28316457981282 75.54273860350898 0.4499060664487851
1.6717275858014613 12.987793878934152 175.38564374025475 79.12408818038051 0.45834640487696005
1.69566572509615 12.970265150199678 158.5079316703225 82.89136878138993 0.467077778238696
1.7191377538341368 12.951064170229802 143.4248526932311 86.85745559165878 0.4761223645079528
1.7421349471172556 12.930154274789293 129.9061939264763 91.03409737325323 0.4854952237447968
1.76461989335464 12.907531589326405 117.78585955094947 95.43499780128722 0.49521677960503135
1.7865456074945067 12.883109497221652 106.92230165770455 100.07418839037685 0.5053060295798838
1.8078865647781497 12.856875981324716 97.17681469532859 104.96798482265073 0.5157878966704696
1.82860161012035 12.828764528248827 88.41301467023521 110.13279595678661 0.526684479003082
1.8486848092785229 12.798823436995999 80.54165290414065 115.58633667283674 0.5380195320844663
1.8680737909722738 12.766943021516463 73.45036554026738 121.348890174663 0.5498227181226185
1.8867505276265446 12.733121299591986 67.07112731877885 127.44174548468992 0.5621234091448004
1.904680340515751 12.697330312938547 61.31554649113596 133.8875490522092 0.5749517010158081
1.9218276047024387 12.659545320537168 56.12811485071362 140.71146602918415 0.5883421326935767
1.9381557945624048 12.619713962887174 51.43983528194529 147.9413736392002 0.6023337744963897
1.9536541212404324 12.577879331384537 47.209536662834864 155.60600715172188 0.6169632914425474
1.9682773354756007 12.533976112399447 43.37868391905011 163.73858076761877 0.6322768953203025
1.9820032639659801 12.48801176693897 39.916903250079535 172.37286888155538 0.6483162734278437
1.9948025562696123 12.439964612857544 36.778718593195805 181.54832677073097 0.6651352734896979
2.006642875975343 12.389822959374548 33.93610817518592 191.30672128766187 0.6827876572494991
2.0175059413284084 12.337600863382091 31.356003282670613 201.6940095879358 0.7013325574229875
2.0273543071958664 12.283253210133958 29.0185072378385 212.76037919485333 0.720833598872488
2.036176380157636 12.226819919871996 26.894985436857723 224.56058220189476 0.7413588907895408
2.043933600474224 12.16826252013206 24.9646959385687 237.1563313125676 0.7629875768936772
2.050606979310002 12.107594427552192 23.20820539983645 250.61378847812162 0.785800192761714
2.056187563929415 12.044864199885845 21.612232472480663 265.00637054247335 0.809886198299443
2.060655760046417 11.980074076214045 20.15919991507105 280.4158677187969 0.8353457527876104
2.0639819929265326 11.913232461975996 18.837729312472423 296.9312001136189 0.8622835276071944
2.06615339083347 11.8443543473843 17.633508049319776 314.6527873526621 0.8908205318885752
2.067164057775045 11.77349954250623 16.538154056925606 333.6902475973265 0.9210837742293053
