M[M_sun], R[km], Lambda[1], P_c[MeV/fm^3], rho_c[fm^-3]
0.24162668629717493 15.618656898711224 2160425.4255784233 3.5677272577965504 0.1711233750220791
0.25363577458498726 15.277475979685331 1723397.1596027708 3.7846680439244187 0.17388628390493138
0.26602187561968116 14.981674035758333 1383417.3869332164 4.011082881246414 0.17666281099003947
0.2787874117346897 14.72404829121825 1116959.228752048 4.24723257292172 0.17945176552190736
0.29193291886092587 14.498983739326285 906391.0722090552 4.49374002191132 0.18225967224117873
0.305457272505249 14.301877977295067 739197.4084120712 4.750749992410529 0.18508202514918995
0.31936326235200724 14.128791559026876 605523.2015211004 5.018962363800852 0.18792582997229704
0.3336489433932466 13.976648505541194 498152.9589067652 5.298577019961614 0.19078723750109597
0.3483185298008404 13.842674536296594 411415.3521956033 5.590350189219603 0.19367310438346133
0.3633678978270611 13.724687143864307 341055.4014867675 5.894414161332318 0.19657784818581125
0.37880997862168686 13.620650634666902 283653.3268289705 6.211647143885544 0.199509448156134
0.3946266517059209 13.52911458438932 236733.35878985492 6.542333059075805 0.2024645557626003
0.41083779752509936 13.448496627909961 198149.5274446871 6.8871209576092305 0.20544598266101155
0.42743078828848463 13.377648992853306 166344.68911636053 7.24673865313361 0.20845722641370604
0.4444106883568441 13.315487439966406 140032.81236438736 7.6214829448687915 0.21149444206585213
0.4617759242972757 13.261092997564333 118192.60931509205 8.01222676955437 0.214562620446255
0.4795252518196209 13.213643173171555 99994.61710487778 8.419708430154111 0.21766396629711743
0.49766377915567955 13.172440314593969 84804.49208354802 8.844419878687809 0.220796692213308
0.5161826026426248 13.136821329033108 72090.02989859624 9.287131656233386 0.22396276095711343
0.5350850082099065 13.106218370841423 61408.35309781659 9.74877432027551 0.2271657841361175
0.5543756420897078 13.080126186366853 52413.96729669207 10.230155132785063 0.23040710895619873
0.5740355588856614 13.058133554116269 44831.89474055735 10.731817580610155 0.23368436264204465
0.594077295067293 13.039786978544466 38418.19356810832 11.254860737624476 0.23700191433853543
0.6144904147906292 13.02472370107331 32979.62858312588 11.80028787377424 0.240362254981961
0.6352713057794096 13.012619868627263 28363.131835404656 12.369074993745224 0.24376701213862786
0.6564195116437807 13.003160692772973 24435.499225036117 12.962009662088875 0.2472152615473633
0.6779347083858683 12.996087838117997 21084.963676700976 13.580219777649605 0.25070957756157003
0.6998020727059387 12.9911395203446 18222.40287361788 14.2249933764994 0.25425366478681116
0.7220125009239617 12.98804946535844 15773.776210656226 14.897516230484996 0.25784950036039617
0.7445780095964176 12.986670444428436 13673.166705247066 15.598947083764086 0.2614982936075965
0.7674753039128515 12.98674805566602 11871.124236473624 16.330290911309607 0.2651993493067924
0.7906984677360609 12.988094118058285 10319.966144583224 17.093282794218105 0.26895861045384817
0.8142503065744118 12.990599095237652 8984.355780143695 17.889372617253038 0.27277849946274335
0.8381077808281627 12.994050505345642 7832.438044264443 18.720088024479573 0.2766615746213778
0.8622657308500469 12.998294398717567 6836.3474916323885 19.586445261275514 0.2806054063547199
0.8867158639071525 13.00322932259901 5974.91863406089 20.490677146497987 0.28461774039907894
0.9114531828206407 13.008708526645991 5228.557092281889 21.43457251713709 0.2887015904712626
0.9364495997325237 13.014586664321563 4581.184700147083 22.419823883943085 0.29285858026859285
0.9617028642577873 13.020773336107679 4018.229062716297 23.44803158988691 0.297089128691232
0.9872044034650356 13.027157167271541 3528.914545539901 24.521811440385584 0.3014009689819853
1.0129232779761645 13.033616200954363 3103.0291172598663 25.64335161116253 0.3057975894611144
1.0388617503655533 13.040070366696053 2731.3336136918206 26.81410988203545 0.31027655358912964
1.0649936351052285 13.046398732011182 2407.209015087653 28.037411582062955 0.31484837951816674
1.0912980563641288 13.052525764551461 2123.530653593043 29.315599844497196 0.31951552963369656
1.1177741775383905 13.058367061632572 1875.660269044223 30.650837770895723 0.32427866433950026
1.1443867569351027 13.063845179788501 1658.2678170129639 32.04689905957637 0.3291484635771474
1.1711229376927954 13.068855503360222 1467.759351018089 33.50574433022621 0.33412276336841434
1.197955882511924 13.073322411993376 1300.6209081407085 35.031535155411454 0.3392127881625079
1.2248822614027575 13.077219064149949 1153.6132032471978 36.62689338659021 0.34441907207017985
1.251862289715705 13.080409445432219 1024.2905427171684 38.296107015637695 0.34975147295674996
1.2788799898938195 13.08286856774405 910.4104766115368 40.04216574366566 0.3552110999767073
1.305905078749038 13.084478071410636 810.1310080653591 41.870161743762004 0.36081030675743403
1.332923576461294 13.085226817089739 721.5695953116206 43.78307887724938 0.36654835904749883
1.3599143342397175 13.0850565651197 643.3905184204081 45.78650481733097 0.3724380707453413
1.3868294594077974 13.083844599803948 574.2009612210555 47.885296812414914 0.3784868263996515
1.4136636442094117 13.08157589487741 513.0325547502739 50.083645099586334 0.3846974693958945
1.440389296766541 13.07820602804671 458.85748961441 52.38780107594573 0.3910824033651722
1.4669580292079292 13.0736271436611 410.819974123148 54.80363001058465 0.3976505480873476
1.4933610007458717 13.067830912916552 368.1472106256326 57.33728817999967 0.4044109082576413
1.519563537816027 13.060751437340029 330.2895456227039 59.995366963913796 0.4113731940358877
1.5455409102805266 13.052317056611395 296.6153843443993 62.78493198473933 0.4185478790553622
1.5712488024943303 13.042506706578944 266.6590719605151 65.71356598973806 0.4259462631559369
1.5966664036173726 13.031254377848484 239.97491983591473 68.78941585515614 0.4335805403945071
1.6217631541213597 13.018512458395245 216.21112257675622 72.02124413873067 0.4414638729533082
1.6464944059543678 13.004241160857951 194.98372790441243 75.4184856603842 0.4496104716416767
1.6708594086450046 12.988397360920704 176.04271586925674 78.99130965146394 0.4580356837701502
1.6947908681065447 12.970933429581638 159.10004809448947 82.74980594609308 0.4667524672554817
1.7182811364532433 12.951816650692354 143.94756223430502 86.70586547203152 0.475779087470755
1.7412828067754345 12.930993528533675 130.3883904546556 90.87241683858282 0.4851355440676206
1.7637672347189595 12.9084385573955 118.23326801035213 95.2616712394274 0.4948364624263703
1.7857027210270524 12.884092739072114 107.32506348466605 99.88906493976845 0.5049065412048245
1.8070435541926149 12.857917716549501 97.54572528179246 104.77002872556965 0.5153674091127735
1.8277932980530702 12.829951932530848 88.7439524837544 109.92027912508877 0.5262387975376404
1.8478718572985686 12.800052086267472 80.84062931355874 115.35884916220287 0.5375496213874016
1.8672913970615077 12.768294118785194 73.73105925054699 121.10518239660958 0.549326618395439
1.8859866837189774 12.73456897298973 67.32284791280142 127.18045086706557 0.5615989929321347
1.903925376054138 12.69884930520908 61.54906238918501 133.6077306316671 0.5743986288180004
1.9210936546006039 12.66116060138049 56.33736592422558 140.41136373325804 0.5877574192979773
1.9374627225764087 12.621481500038879 51.63558546662258 147.6187920038977 0.6017132726714483
1.9529825391269795 12.579728807767742 47.38627122084142 155.26003575211377 0.6163076410080647
1.9676475873775412 12.53598226276481 43.540721891628024 163.36604009653584 0.6315793374902999
1.9814066604984404 12.49013138284715 40.064137548882 171.97251500186624 0.6475770637627853
1.994251272723594 12.442238482107589 36.914149692044 181.1176243791516 0.6643507431114093
2.006117156473373 12.392186319908186 34.06097328139152 190.84287730490965 0.6819537993587335
2.0170149824184063 12.340069986608327 31.473649246521184 201.1939431663835 0.7004449888522172
2.0269095081653665 12.285852686166482 29.12483023862586 212.22111310631837 0.7198889102593875
2.0357712545075626 12.22954845523215 26.990269736041764 223.97880826591265 0.7403532806911225
2.0435828299162426 12.171147243750168 25.05271889902647 236.52773187761883 0.7619147415673894
2.050306698282511 12.110615299951304 23.291805282089513 249.9337789129033 0.7846538503433711
2.0559339794305904 12.048004406947836 21.688558558219142 264.2705995942794 0.8086618326942572
2.060452791730734 11.983351423863065 20.22940669958823 279.6187486909599 0.8340359616495449
2.0638423186719312 11.91666062116592 18.901810853929135 296.067640456503 0.860883823529566
2.0660702697688365 11.847925465742389 17.692295760471513 313.7151378557366 0.8893195394654598
2.067139041364301 11.777215657738143 16.591200758950258 332.6719812760667 0.9194755039134153
