M[M_sun], R[km], Lambda[1], P_c[MeV/fm^3], rho_c[fm^-3]
0.24162668629717493 15.618656898711224 2160425.4255784233 3.5677272577965504 0.1711233750220791
0.2536449978848829 15.277236518399654 1723297.3301544408 3.784837466415354 0.17388839567454878
0.26604112479572095 14.981251846576873 1382834.318574492 4.011439032604579 0.17666711486901673
0.27881735302626426 14.72347853583757 1116373.8241945475 4.247787493520947 0.1794582017646109
0.29197339621165 14.498340725551987 905824.144721831 4.494508264206852 0.1822682267974392
0.30551016894800326 14.30115705498766 738624.8890241322 4.751757631244961 0.18509290957170946
0.31942847719496914 14.128032374571724 605071.5787201246 5.020216812118049 0.18793884535776054
0.33372484763995547 13.975915209329118 497616.97615570057 5.300111291467892 0.1908026850693474
0.34840953065043556 13.841955814957522 410960.04007915757 5.592168104761287 0.19369069321641846
0.36347520432146435 13.723875665183753 340627.66108411865 5.896556548002762 0.19659796993479742
0.37892839458885885 13.619931729300673 283261.5663791338 6.214139913150507 0.1995321792103409
0.39476252988153576 13.528377621135796 236375.15040419562 6.545173613003521 0.20248946358314598
0.41098860018505257 13.447801611197653 197833.55544995857 6.890364113132071 0.20547360273438145
0.427598363281141 13.3769908165364 166058.86413069113 7.250414826115348 0.20848763845066154
0.4445946300737159 13.314900176187528 139777.81549960293 7.625581965730403 0.2115270729075723
0.4619779915398375 13.260512445568427 117957.32362573144 8.016820108731194 0.21459815363834295
0.47974400824190594 13.21311066844486 99794.46057000215 8.424831884696731 0.21770248751281984
0.4979030188284514 13.171938767070754 84624.91016268483 8.8500545502279 0.22083748964276817
0.5164441136411734 13.136348923164736 71926.25560445589 9.293368696591546 0.224006670110069
0.5353635548981781 13.10580698953473 60671.94119395912 9.755655992784526 0.2272128997087957
0.5546725793167369 13.079786913980882 52295.17203665781 10.237725991359573 0.23045752620772553
0.5743568297962806 13.05780882378507 44719.343919244784 10.740045277774078 0.23373718700645862
0.5944149732794067 13.039500534958352 38320.22217253135 11.263868679534959 0.23705819612260254
0.6148551166705669 13.024501064040887 32894.346326710554 11.810129242273051 0.24042210692239457
0.6356609644369271 13.012414202616624 28284.05392307782 12.379806287159152 0.24383055292322556
0.6568333731873762 13.002999609533717 24364.210916044118 12.973581602790276 0.24728140201511492
0.6783668499347203 12.995967671185038 21022.250886738115 13.592796618360444 0.2507796020411107
0.700257480678291 12.991059718602626 18167.763507061536 14.238642509718627 0.2543277120006716
0.7224944912449829 12.987999652628062 15724.49072638108 14.912309377036378 0.2579277173025321
0.7450839075384971 12.986639072705334 13630.05044309755 15.61481629400716 0.261579406483896
0.7680057577548294 12.986759250682812 11832.70403785573 16.347450986813563 0.26528488797928407
0.7912540135847169 12.988149943100671 10287.090810293683 17.11181980232943 0.26904874964713593
0.8148312418661336 12.990670351155734 8953.481334542066 17.90937832916788 0.27287342513530227
0.8387154706313904 12.99414226693338 7805.275131168198 18.741475309948154 0.27675984488547195
0.8628983373403507 12.998408320189133 6811.996555571033 19.60948888340942 0.28070878855438275
0.8873810233624332 13.003369525828681 5953.285167856262 20.51548952135487 0.28472647207292134
0.9121391985163577 13.00885828888937 5209.284951885021 21.461272066226535 0.2888159102086216
0.9371620967671472 13.014755286670429 4563.680262610463 22.448299422820515 0.29297685144557645
0.9624469281177062 13.020967028582817 4003.126765792512 23.478640271148766 0.29721343964056174
0.9879697395067527 13.027349542367379 3515.3192069054026 24.554697237548496 0.3015316086424926
1.013715652535062 13.03380943373528 3090.664854192246 25.678387275969634 0.30593279883909313
1.0396807307201803 13.040262864094784 2720.3868095497883 26.85172348485957 0.31041865100753474
1.0658354053332784 13.046589833666074 2397.3340538583925 28.07777906687788 0.31499771639762486
1.0921697292887933 13.052724516755061 2114.8913438030604 29.358578203347978 0.3196702253367125
1.1186696620859204 13.058553372813606 1867.6884607273373 30.696939807668652 0.32444129226155427
1.1453023548354315 13.064008059343001 1651.4096895313887 32.09620007625072 0.32931854182784787
1.1720677170823186 13.069021504877483 1461.4624692676223 33.55836820904754 0.33430011126579123
1.198925973208492 13.073482459541435 1294.8639527474058 35.087955784624185 0.33939935588764725
1.2258738364087312 13.077347506657153 1148.596316623184 36.68694712179915 0.3446127961238455
1.2528713323550578 13.080501857063412 1019.7378739929378 38.360433578719274 0.3499551084386935
1.279916019040638 13.082945353849752 906.3163423799002 40.11069893436788 0.3554231187732802
1.3069609911690419 13.084523648058331 806.4328613404791 41.943133894762724 0.36103091262514164
1.3340002676844496 13.08523917070808 718.2995973469974 43.86130754617444 0.3667808951084324
1.3610097510493606 13.085033283271116 640.3452229864679 45.86982618669384 0.372680357969096
1.3879414869868587 13.083768511081608 571.5628182105561 47.974066520494105 0.37873949364433007
1.4147929894597897 13.081456315073554 510.59748236336753 50.17883580510373 0.38496420424298683
1.4415243583547002 13.078017856015352 456.68876106906254 52.48926176376732 0.3913609763998956
1.4681207965799257 13.073414536236688 408.84379966918306 54.911809604896625 0.3979417480995597
1.4945320159433932 13.067543084269547 366.3780964433612 57.4526719520925 0.4047155849868352
1.5207435582150335 13.060393560887029 328.70465491040267 60.118479784807626 0.41169226317354307
1.5467297543038672 13.051898113815447 295.1656303295138 62.916341902197935 0.41888232774284606
1.5724442643187986 13.042013108391222 265.34065597884546 65.85388816577648 0.42629715603108903
1.597859277758225 13.03067292571583 238.80404261263814 68.93931690454211 0.43394902624630255
1.6229558493087164 13.017853473290625 215.14051139958553 72.1814469139518 0.4418511920510537
1.6477086301474808 13.003504496404938 194.0082346290884 75.589774534192 0.4500179638132077
1.6720568352551541 12.987563540285748 175.1536054679756 79.17415789043635 0.45846321693768566
1.6959946189491482 12.970004700335029 158.29319631092824 82.94496074376524 0.46720093241214933
1.7194741851091242 12.950786311233664 143.21356373467168 86.91484566304307 0.4762523247831859
1.7424536567946562 12.929832202761851 129.71347756210608 91.09530944260445 0.48563139806775046
1.764936581598637 12.9071816174441 117.62354945734681 95.50062150069479 0.4953607726545916
1.7868636203383932 12.882741513000761 106.77469290047931 100.14428085885017 0.5054572860859736
1.8082004142647636 12.856471982366829 97.03938918924582 105.04290949871269 0.5159469993771355
1.8289140112693647 12.828337537712374 88.29221785448553 110.21305828499112 0.52685246402375
1.84898717862016 12.798347140738308 80.42311683732031 115.67247880686818 0.53819747200801
1.8683614576598215 12.76640048270311 73.3512513364512 121.44117785820872 0.5500105820266545
1.887036768118755 12.732572530021217 66.97599086530582 127.54059622997461 0.5623216443487857
1.904958772785802 12.696745147454882 61.229017554589596 133.9933672534851 0.5751606190013865
1.9220977649815851 12.6589168407591 56.0478663013276 140.82512237240746 0.5885635784714986
1.938408998815739 12.619016561726696 51.36608077493277 148.0635486939375 0.602568784292765
1.9539028053749614 12.577160264204519 47.14232693691291 155.7370460407553 0.6172116232544435
1.9685161717697564 12.533221485685141 43.32132177650601 163.87939255092977 0.632540107390753
1.9822276196792208 12.48720846723859 39.86033997839951 172.52451883015286 0.6485962784768666
1.995011934384617 12.439116065271119 36.72879320976439 181.71147962354783 0.6654324586733462
2.006845070180052 12.388945959127737 33.88658696633629 191.48243643962323 0.6831035424855663
2.0176883604397884 12.336658680768208 31.31384767801315 201.8834556689754 0.7016688055295178
2.027520814713447 12.28226427531476 28.977823521403327 212.9643690600412 0.7211904669373083
2.036326175985646 12.225781542106146 26.85748336477691 224.7810037619861 0.7417398947036518
2.044065606424366 12.16717517343296 24.931152764837904 237.39425831681385 0.763393264292264
2.0507217274808154 12.106452774904751 23.177901281453785 250.87120139480163 0.7862337325808708
2.056288628852597 12.043691596123558 21.584997939317976 265.2851558465114 0.81035007129941
2.060729223746874 11.97882924528923 20.132992964562 280.71744301280546 0.8358404773188202
2.064000331058228 11.912440205568885 18.824129222680273 297.2995813083714 1.0706869072579939
