M[M_sun], R[km], Lambda[1], P_c[MeV/fm^3], rho_c[fm^-3]
0.24162668629717493 15.618656898711224 2160425.4255784233 3.5677272577965504 0.1711233750220791
0.2536439733800479 15.27729061728036 1723200.8020502187 3.784819734245274 0.17388817465160303
0.2660399325160259 14.9812648345833 1382996.539022254 4.011401755877097 0.17666666440176435
0.2788149016978857 14.72350785548131 1116452.5944301123 4.247729410934475 0.1794575280941364
0.29196937094258874 14.498422483708971 905860.0857876939 4.494427851452472 0.18226733138275636
0.30550447479092757 14.301245170988656 738660.9735696474 4.751652157732766 0.18509177025647852
0.319420692960253 14.128136281968578 605103.8922780802 5.020085500719014 0.187937482951314
0.33371956907909944 13.975990164126086 497704.80302239006 5.299950684876615 0.19080106802746774
0.34839998079076967 13.842035219452697 411010.6612738897 5.591977801793828 0.19368885198285776
0.36346264819865887 13.723996075873742 340660.5305622009 5.896332272962941 0.19659586349616176
0.3789159417695362 13.62000869887899 283306.70505528146 6.213878951728767 0.19952979955639263
0.39474753294149334 13.52848560434861 236406.88837072096 6.544876235956469 0.20248685598818006
0.41097253277631657 13.447876584961797 197862.10428124238 6.890024579260389 0.20547071112145035
0.427580685334157 13.377084592775502 166089.75759175347 7.250029948965302 0.20848445446063477
0.4445756528973691 13.314935194613481 139808.77201245484 7.625152808888928 0.21152365654316724
0.46195676236617167 13.260575822251466 117980.91622730473 8.01633918621927 0.21459443331390407
0.4797218622262109 13.213160895386375 99811.57990507156 8.424295445986552 0.21769845424364687
0.49787801177536933 13.171991412323028 84647.25758617291 8.849464573109124 0.2208332179563504
0.5164162198782248 13.136413550599153 71939.59974469527 9.292715632797124 0.22400207250024248
0.5353349789769983 13.105846127867826 61280.26501711893 9.754935413934854 0.22720796624456624
0.5546412866210377 13.079824597582014 52301.60948288419 10.236933476354467 0.23045225008013057
0.5743235446095308 13.057841612699201 44731.450037534516 10.739183718446863 0.23373165552870023
0.5943792833465343 13.03952799342571 38330.114020738765 11.262925394811823 0.23705230246258244
0.6148164695232371 13.024504540713757 32902.057513170286 11.809098659118728 0.24041583925732626
0.6356203386655949 13.012438050424041 28292.392099374203 12.37868248482713 0.2438238988062282
0.656790605204208 13.003014955242573 24371.79711403248 12.972369741995603 0.24727447551575948
0.678322598724985 12.99597404437247 21028.69727020056 13.591479489204199 0.25077226861884877
0.7002095772989212 12.99105451974132 18172.019618415572 14.237213049244605 0.25431995710783517
0.7224437369492874 12.988003934113317 15730.250366179233 14.910760068449822 0.2579195255240187
0.7450308139125231 12.986655322128106 13634.695292637532 15.613154255063762 0.26157091124329135
0.7679516016614737 12.986759325183485 11837.05661100419 16.34565370836305 0.26527592899698127
0.7911953538045228 12.988139098032928 10289.327839612934 17.10987826325682 0.2690393086000861
0.8147686318993699 12.990672591886023 8956.63937044594 17.90728291022996 0.2728634825222715
0.8386523729733282 12.99413288505186 7807.907079509168 18.73923530551504 0.2767495532241112
0.862832342541059 12.998407770537577 6814.89122018913 19.60707516569727 0.28069795972526046
0.8873116315870568 13.003351096560376 5955.65457711634 20.512890471960286 0.2847150826354853
0.9120675153674536 13.008849845307283 5211.360629213115 21.458475271093217 0.28880393514177616
0.9370875296593347 13.014734273027223 4565.4870787618665 22.445316532947913 0.2929644622192456
0.9623659589838806 13.020936700459982 4004.642000778778 23.4754338502997 0.2972004174127732
0.9878906559525477 13.027334591341846 3516.7531666407317 24.551252191774346 0.30151792311107195
1.0136310606044088 13.03379297017885 3075.442937754015 25.674716941331358 0.3059186343108575
1.0395966957544462 13.040241052521715 2721.602565922587 26.847782986923153 0.3104037645158947
1.0657466265690332 13.046568435902238 2398.458842202752 28.073549958315468 0.31498207108609516
1.0920777690978356 13.052706960736582 2105.2826353618407 29.354075473815552 0.3196540182750858
1.1185756770338402 13.05853449886805 1868.6979903195265 30.692109694371247 0.32442425372391415
1.1452066115666901 13.063996321919602 1652.1638800954877 32.09105834473424 0.32930087534479746
1.1719692240501938 13.069005803065497 1462.1151245070762 33.55285454195215 0.3342815296391969
1.1988247651961723 13.073463573681753 1295.5855439713432 35.08204415584154 0.3393798077339092
1.2257704980017583 13.077332281226086 1149.1407626778077 36.68065468767085 0.34459249770539546
1.2527650684041702 13.080490761928719 1020.2329883267512 38.35373480059768 0.3499340146285773
1.2798065315072469 13.082934397640384 906.7447950830377 40.103517666353916 0.35540090232915167
1.3068506374791844 13.084519141788283 806.795693579412 41.93548731555367 0.361007795857741
1.3338875884055987 13.085231234096362 718.6406366942206 43.853109916565764 0.3667565275137336
1.3608949251339584 13.085037448624378 640.6420850245743 45.86109468486742 0.3726549679478696
1.387825823438985 13.083777410722204 571.8454349968775 47.964763848046054 0.37871301523557493
1.414682489467611 13.081485155513239 510.85007515478105 50.168859944849025 0.3849362507831906
1.4414051731584425 13.07803419547564 456.90804250989703 52.47862855350933 0.3913317815884468
1.4680002427318022 13.073435894878713 409.04219778964284 54.90047195723514 0.3979112291910864
1.4944083012762532 13.0675730357437 366.5477791790338 57.440578965253664 0.40468365283893076
1.5206200076386573 13.060431478898217 328.8549514900898 60.10557640110896 0.41165882172138824
1.5466036270116843 13.051945864201013 295.3097617261702 62.902568532432205 0.4188472734217608
1.5723194339870412 13.04206557568105 265.4760192173121 65.8391802757196 0.4262603771414282
1.5977434707902494 13.030739037164118 238.93806219949147 68.92360455932553 0.43391040225444555
1.6228313279917173 13.017918850950215 215.25424227976671 72.16465427552117 0.44181059281950646
1.6475822995208207 13.003583942299226 194.1114913696351 75.57181930647663 0.44997524875198147
1.6719315161849706 12.987648743301296 175.24395032172328 79.15504447352609 0.4584186255547057
1.6958684769375136 12.97010555113596 158.3752266133155 82.92450263532203 0.4671539197385305
1.7193490352222873 12.950894496332342 143.2868739870962 86.8929375383078 0.476202713659663
1.7423347199515262 12.929955109476127 129.78386027874348 91.07194218292867 0.48557941451615094
1.764814651642036 12.907313031649041 117.68525296655775 95.47556997435076 0.49530580401205876
1.7867415814950791 12.882877017332607 106.82754677860775 100.11752325194043 0.5053995443311082
1.8080798315453417 12.856625948948386 97.0901838588611 105.01430704437288 0.5158862620053919
1.8287911274179336 12.828493806654786 88.33606430184673 110.18245962127358 0.5267884903573986
1.8488717214218002 12.798532532373812 80.46768006301954 115.63959366564701 0.5381295426540369
1.8682580633521624 12.766626267667363 73.38132383558255 121.40594640203975 0.5499388636927829
1.8869275654599624 12.732781287026102 67.01187517788573 127.50292121798685 0.5622461883533977
1.9048514124267732 12.69696864560745 61.2596698662378 133.9529699235967 0.5750808621289272
1.9219950799223349 12.65915579109824 56.078783816467805 140.78173243606665 0.5884790383751479
1.9383096072530448 12.619283829507172 51.39663194647633 148.01690627958266 0.6024790652881485
1.953806851335177 12.577432130822016 47.16442313233376 155.68701937195354 0.6171168177093239
1.968424759518997 12.533508648480673 43.341669202711905 163.8256784319363 0.6324397689700777
1.982141430054622 12.487512477639156 39.88238512422277 172.46662262000046 0.6484893794550609
1.9949300889623551 12.439443503293061 36.74548175959006 181.6491914218666 0.6653189998503091
2.0067686988811055 12.38928771225755 33.9054505002369 191.41535170449342 0.682982943452663
2.017619050248055 12.337017850885497 31.329914267780087 201.8111281402486 0.7015404313005502
2.027457252442219 12.282637839862376 28.99340701743068 212.8864883459757 0.7210542192875057
2.0362689104514047 12.226177967326638 26.871980104267823 224.6968489062745 0.7415944310321112
2.044016926329402 12.167588883631149 24.944298485220585 237.303419290743 0.763238375408198
2.0506772466341925 12.106889013883007 23.189190781932517 250.77302182246586 0.7860685337562947
2.056252953757148 12.044148342090546 21.595432533546706 265.17873168733536 0.8101730172584648
2.060701153485172 11.979305626417581 20.14274620955205 280.60231699083926 0.8356516438474487
2.06400768436286 11.912417113416701 18.82124357570677 297.1334344168164 0.8626111834149423
2.0661725715867965 11.843520334276198 17.61994202612433 314.8724738153535 0.8911722067063426
2.0671687138194534 11.772636028785042 16.524629098309763 333.92883481387486 0.9214606036796311
