M[M_sun], R[km], Lambda[1], P_c[MeV/fm^3], rho_c[fm^-3]
0.24162668629717493 15.618656898711224 2160425.4255784233 3.5677272577965504 0.1711233750220791
0.25363178396712044 15.277590573645373 1723594.91029086 3.7846009071961446 0.17388544707800127
0.2660148924702827 14.981798714875149 1383675.9399734787 4.0109417560828815 0.17666110557572456
0.27877684371459455 14.724218463181012 1117114.4287952823 4.247012694759092 0.1794492152665702
0.29191619941337615 14.499254486523043 906606.8089786413 4.4934356312398736 0.1822562827804068
0.30543689612788727 14.30213565078299 739394.6507011642 4.75035076565378 0.18507771273828136
0.31933686676854783 14.129120951288087 605750.5261130524 5.018465370955058 0.18792067347970032
0.33361789288711374 13.976953455900228 498342.58086173155 5.297969190615065 0.1907811176681475
0.34828224695506826 13.843032838182197 411624.63444027223 5.5896300168751445 0.19366613651791612
0.3633271319111629 13.724967795266249 341236.3750743825 5.893565483056049 0.19656987721984107
0.3787614585862381 13.620961559995065 283809.80838486156 6.210659705672606 0.199500443908585
0.3945734160119938 13.529410495744523 236887.03313252245 6.541207897183286 0.20245468961282218
0.4107778628082185 13.4487838670112 198278.50729588297 6.885836373001822 0.20543504259943984
0.42736449051461894 13.377913949390743 166450.6707353312 7.2452826110024136 0.20844518095030626
0.44433734771631506 13.315756626082093 140137.14158953744 7.619859479726804 0.21148151823943726
0.4616938778284892 13.261355992882912 118279.3454390876 8.01040759363555 0.21454854764978235
0.47943671075379785 13.213865036128542 100083.6718191639 8.417679381363172 0.21764871068676775
0.4975704949749376 13.17263169352718 84878.50877714563 8.842188446779998 0.22078053569287795
0.5160811072337989 13.13698376210888 72155.79524828178 9.284661768413002 0.22394537279287835
0.5349758114785849 13.106365661651731 61460.19411409149 9.746049258403948 0.22714712692008546
0.5542567527840256 13.080296668907282 52467.92691108182 10.227157164118006 0.2303871436543875
0.5739082397951734 13.058275499429957 44874.345834327454 10.728559735465351 0.23366344626706087
0.5939422512349792 13.039898651865325 38456.16883036267 11.251294078551346 0.2369796297881032
0.6143470002368202 13.024814825828695 33017.10777656616 11.796391367165919 0.2403385577206047
0.6351194717526146 13.012680512689476 28394.9201493456 12.364826295314296 0.2437418552799523
0.6562570884811203 13.0032157419012 24461.641479945538 12.957428280105116 0.24718907624662825
0.6777636084512685 12.996133493831936 21109.32945014481 13.575240734940625 0.2506818555857318
0.6996202361604099 12.991179181075124 18244.134697558642 14.21959002354867 0.2542243513333427
0.7218226842674512 12.988072359458483 15792.423481378124 14.891660207464495 0.2578185373592422
0.7443777452504194 12.986666750265044 13690.055431959265 15.592665281654025 0.2614661852020939
0.7672662147040549 12.986734945313364 11886.383091849644 16.32349837325185 0.26516549020820185
0.7904788035672018 12.988068360732907 10333.94912793654 17.085945491689923 0.26892293163627273
0.8140145732873608 12.990556456944518 8937.313041573376 17.881454268252018 0.27274092746292256
0.8378670536660121 12.994010910485823 7842.996868220456 18.711549925687354 0.27662203118857237
0.862018301785433 12.99825346550268 6845.829699192 19.577325112373643 0.28056448999837413
0.8864529858962866 13.00317400968768 5983.4244131319065 20.480857334095493 0.2845747084585452
0.911181144494215 13.008633186331267 5236.078419048737 21.424006231129102 0.28865634869443535
0.936170826917443 13.014522471320863 4587.685398159536 22.408555099623264 0.2928117761540011
0.961409937647888 13.02070123346924 4024.3075652943676 23.435919107924406 0.2970399363030132
0.9869020378102369 13.027081919865923 3534.359015080236 24.5087983579743 0.30134927418316554
1.0126099801544666 13.033536787301557 3107.7486789010004 25.62941366888925 0.3057435397211915
1.0385328339145832 13.03998138316176 2735.838215975089 26.79922702699874 0.31022032884274986
1.064659167508092 13.046316553562308 2410.9705672401783 28.021439707459695 0.3147892926089059
1.0909536127272617 13.052439575878585 2127.1102225317527 29.298595489513342 0.31945432439648186
1.1174188264749947 13.05829488320714 1878.6300090760014 30.632598267007552 0.3242143233076444
1.1440193837708932 13.063760905577258 1661.0740788974938 32.02733900474574 0.3290808172984944
1.1707487467201958 13.068786396605882 1470.2757647125432 33.48492609936678 0.33405260378396867
1.1975728891287787 13.073262152800298 1302.7790486569127 35.00921583943455 0.3391389842353525
1.2244890336029701 13.077167993569907 1155.6067332218745 36.603137662017325 0.3443424397800149
1.2514549422292667 13.080349379733214 1026.1836698688444 38.270642070444595 0.34967080559284924
1.278469192953965 13.082835104560456 912.0326085054959 40.01505785933965 0.35512723723876166
1.305486773728585 13.084465241276053 811.5876303270256 41.841230992934 0.3607226691186822
1.332503494382038 13.085249683070456 722.8987951139663 43.75213846939589 0.3664563881541576
1.3594806541889026 13.085069051647903 644.5701211312012 45.75355139056182 0.37234224665668125
1.3863889617497742 13.08386602456673 575.3035676280389 47.85007447939782 0.3783862970233849
1.4132149046658573 13.081622480964496 513.9711981393814 50.04600052055869 0.3845919851369407
1.4399350846307124 13.078275008282043 459.7209083392937 52.347678494015085 0.39097224178782297
1.4664988728237078 13.07372068924575 411.5785836923579 54.76085213170923 0.3975353977308487
1.4928969026810313 13.067946289467084 368.86184043195544 57.291663366984395 0.4042904336142193
1.5190968559168059 13.060892462343505 330.9516691109879 59.94668795401498 0.41124703357918163
1.5450683315596943 13.052487845346482 297.1977065195106 62.732974479487766 0.41841564307369217
1.5707749741749117 13.042702606941745 267.1899432157929 65.65808710277196 0.4258075313695054
1.5961922144360314 13.031473159443376 240.44938742389826 68.73015240212521 0.43343485933316767
1.6212863038145313 13.018769466757517 216.63138475669183 71.95791075137767 0.44131075306875645
1.646026468573116 13.00453441550808 195.37562006907237 75.35077270469587 0.44944938412477714
1.6703743569673115 12.988708604734871 176.39238505605778 78.9188809272645 0.45786605704053956
1.694314952978182 12.971299985548306 159.43184851770243 82.67266523116923 0.4665751981172569
1.7178082483210302 12.95222277330754 144.2445143163321 86.62326396730475 0.47559203570326236
1.740812362673303 12.93144132152447 130.65461485758712 90.78429756068006 0.4849394718007171
1.7632927829839158 12.908904458741926 118.47679998781926 95.16723278944768 0.4946292433800336
1.7852416826222997 12.884629838499858 107.54634198050533 99.78820258827382 0.5046888846260883
1.8065910249506778 12.858502967763409 97.74046225020858 104.66177967842339 0.5151368111259851
1.8273458624569274 12.830581961648752 88.92666147005924 109.80450149352231 0.5259959935014157
1.8474335697849278 12.800731954550836 81.00799202645847 115.23492066035622 0.5372936278670247
1.866862485544464 12.769029019643554 73.88212026918163 120.97242315520818 0.54905636923078
1.8855573035678141 12.735329987529203 67.4594090258555 127.03811741974827 0.5613133308390674
1.9035200809123185 12.699696000288586 61.67544529306912 133.45500919543838 0.5740962960454201
1.920708795038234 12.662083448111831 56.45731365507177 140.24790482362636 0.587438939181733
1.937096144479002 12.622477439682095 51.744527496026116 147.4430975228374 0.6013753155957833
1.952638373236807 12.580812516512479 47.483309459012766 155.07143851454458 0.6159499686048133
1.9673019637779345 12.537068801442459 43.631142125321595 163.1631546918363 0.6311994479544004
1.981090299499419 12.491318128142549 40.144077050110305 171.75449292870195 0.6471745098427278
1.993942903230419 12.443462318131054 36.987595748730115 180.88308692237104 0.6639235298818374
2.005835289114928 12.39349022908305 34.12756035432024 190.5903056924958 0.6814997483419561
2.0167491934254635 12.341424056698298 31.535352933372902 200.92166228791 0.6999617171512207
2.02666883001647 12.287292742340728 29.18216625611709 211.92727311729263 0.7193738071335625
2.035553293956327 12.231047963274218 27.044382490528047 223.66207277260725 0.7398057958505415
2.043391941395718 12.172716855533961 25.10251927731325 236.1851545087168 0.7613294897403308
2.050147615486307 12.112276914931789 23.33635950234197 249.56360422292778 0.7840298194899527
2.055806594451319 12.04975928981987 21.730002395142737 263.87009420251445 0.8079953684534874
2.0603435298514405 11.985148481141886 20.26767826445925 279.18487643860215 0.8333230417325123
2.063763654206249 11.918532084571131 18.93662813416536 295.59702383394074 0.8601200122086714
2.0660237605455287 11.849873296787448 17.724953257672325 313.2048402794193 0.8885026534135843
2.067134605116366 11.779257460817975 16.62089319949406 332.11717667383016 0.918598070442983
