M[M_sun], R[km], Lambda[1], P_c[MeV/fm^3], rho_c[fm^-3]
0.24162668629717493 15.618656898711224 2160425.4255784233 3.5677272577965504 0.1711233750220791
0.25364135875726607 15.277379519180474 1723235.5289883625 3.7847884227788997 0.17388778436927982
0.26603606988119305 14.981323639303394 1383171.251991694 4.011335933235887 0.17666586897399117
0.2788096571507926 14.723642332939297 1116512.6133894676 4.247626850555366 0.17945633854829393
0.29196204945525484 14.498519217515817 906012.0311832986 4.4942858624036335 0.1822657503017436
0.30549462899848695 14.30138032513702 738766.5011598156 4.751465919214071 0.18508975852503506
0.31940854043380185 14.128297505234762 605225.2511599208 5.019853641202497 0.1879350773193406
0.3337059290222763 13.976116300416148 497799.6355639625 5.299667100600429 0.19079821280435796
0.34838356575147994 13.84216835458856 411091.74956016877 5.591641785081104 0.19368560092872716
0.3634433609375754 13.724126462278882 340749.067690845 5.895936275293018 0.1965921442022438
0.3788944988619641 13.620126061856823 283376.1895653983 6.2134181815172145 0.19952559788686672
0.39472369090865106 13.528580187865883 236475.4859885676 6.544351171961781 0.20248225188627333
0.4109449109808744 13.448027741644381 197930.90958293088 6.889425085914648 0.2054656055845504
0.4275489124835028 13.377200431491412 166138.04540854567 7.2493504013735155 0.20847883273756104
0.44454235289434024 13.31505584805119 139853.16017481202 7.62439508558202 0.21151762457842976
0.4619195053707492 13.260679610704655 118024.28028118433 8.01549007171608 0.2145878647267423
0.4796803270862579 13.213293206644662 99851.4388106824 8.423348319844807 0.217691333179119
0.49783371009625266 13.17208857107893 84677.89755249226 8.848422927801318 0.2208256759992611
0.5163680412160977 13.136498166463666 71969.6989299446 9.29156261261703 0.2239939551662922
0.5352835702962156 13.105921014242812 61306.31913070958 9.753663202103665 0.22719925600894897
0.5545852630648764 13.079891492915706 52323.41397749086 10.235533781157486 0.23044292865614152
0.5742633252793787 13.057932476153372 44751.961699567444 10.737662621691278 0.23372188961635257
0.594316971971398 13.039581963980492 38347.75391339144 11.261260023380116 0.23704189719174007
0.6147499242999028 13.024544534118705 32919.183387929595 11.807279176083675 0.2404047737647327
0.6355468500878525 13.01246296646807 28309.177545419025 12.376698439615595 0.24381215112730864
0.6567146104352242 13.003047833132117 24384.3360281612 12.970230245571939 0.2472622470315436
0.6782416144472895 12.996001587080293 21039.731170723288 13.589154163073305 0.2507593218259441
0.70012499376976 12.991083308933213 18182.656434732515 14.234689427061829 0.2543062663343282
0.7223546664243693 12.988005937316375 15739.451106136585 14.90802488295421 0.2579050635672674
0.7449381400614947 12.986651737025008 13642.88781766147 15.610220071372856 0.2615559136425844
0.7678527798702077 12.986748122877717 11761.175006102289 16.34248079552648 0.265260112822285
0.791093372959104 12.988127315407315 10295.655109282257 17.106450699272642 0.26902264151710165
0.8146630416532272 12.990648019896156 8963.603244952303 17.90358371757831 0.27284593011764435
0.8385406076627622 12.994113499314157 7812.436484134987 18.735280890701723 0.2767313847341132
0.8627158087389003 12.998378939313925 6819.329934268754 19.602814117408975 0.2806788430888934
0.8871858469775575 13.003330514163881 5959.755108589329 20.50830228479304 0.28469497648790876
0.911940880090093 13.008809988303007 5214.965204168688 21.45353803560467 0.2887827953291734
0.9369553089664489 13.014701681896787 4568.507214476868 22.440050814381856 0.2929425914221677
0.9622292016787397 13.02089786606997 4007.60224392976 23.469773575617594 0.2971774293554577
0.9877490152771183 13.027295182308505 3519.319853405165 24.54517072255597 0.3014937643208763
1.013486533579462 13.033754900897952 3094.294356297434 25.668237816140127 0.30589363011893544
1.0394446639328638 13.040202776442674 2723.620723639209 26.840827007364982 0.31037748607768395
1.0655935603963544 13.046545350105873 2400.0782864491175 28.06608456873072 0.31495445336382094
1.091917658407164 13.052660628748614 2117.414295683309 29.346127130316116 0.31962540911879567
1.118410545502112 13.058501009786838 1870.115878195838 30.683583514895396 0.3243941770733304
1.1450365094262727 13.063959088768579 1653.3933208482918 32.08198215404506 0.3292696904475582
1.1717942238383858 13.068972649512244 1463.3871794655433 33.54312189281121 0.3342487296081138
1.1986443876977566 13.073433251513737 1296.5339631967638 35.07160911996542 0.3393453018992115
1.2255859323721543 13.077305080318428 1149.8915013343455 36.669547543204175 0.34455666777669497
1.2525775104012555 13.080474346359086 1021.072686278528 38.34183167143097 0.34989631864246185
1.2796159097542248 13.082921570602728 907.5281859071746 40.090841792396965 0.35536168740986473
1.3066549428484184 13.084514677848452 807.4636315504192 41.92199020583973 0.36096699205027255
1.333687765383643 13.085235820779333 719.203713114541 43.83864027090171 0.3667135162436704
1.360691874053504 13.085039403638122 641.1653848276807 45.84568281783508 0.3726101523320835
1.3876196052987735 13.083791539773932 572.3211908592166 47.94834394181373 0.3786662788819767
1.4144726529713243 13.081508806132263 511.2962604869118 50.15125198113409 0.3848869113284237
1.441201052398596 13.078086134923952 457.3009774691612 52.459860480312415 0.3912802514912374
1.467785550435312 13.07348185837545 409.4081249687955 54.88046068587502 0.39785736244753367
1.4941920325377986 13.067624251546556 366.8821968857205 57.41923467745856 0.4046272921594831
1.520402185390221 13.060495248585715 329.1523796865655 60.082801946567066 0.41159979760417204
1.5463835347297308 13.05202449285449 295.5764739664776 62.87825876623703 0.418785403134082
1.5720988560999314 13.042154940104414 265.7289888003655 65.8132213290156 0.42619546359959154
1.5975216938735308 13.030845236119193 239.1570498129083 68.89587303564812 0.4338422327908847
1.6226082540402043 13.018046194570175 215.45163321783528 72.135016364401 0.44173893782490176
1.6473604312494463 13.003720421932725 194.29269853794403 75.54012980483348 0.44989986017856026
1.6717091784561549 12.98780801320087 175.409270694406 79.121311139023 0.4583399260712444
1.6956477510761194 12.970279650796911 158.52409363376069 82.88839641350653 0.46707094774595687
1.71911267837809 12.951053147553187 143.42807611514266 86.85427260230666 0.47611515660313086
1.7421172097311908 12.93017005848715 129.9174190958276 91.03070243731017 0.48548767126195447
1.7646019428328885 12.907551202428387 117.79404817078257 95.43135822756652 0.4952087935676108
1.78652807701196 12.883131334482401 106.93018156553276 100.07030101021309 0.5052976407821397
1.807868775116125 12.8568993105877 97.1837684552099 104.96382948572719 0.5157790728038026
1.8285832881822786 12.828789997325192 88.42101764316747 110.12833311068859 0.5266751197077588
1.8486674130532281 12.798851939107907 80.54619207737854 115.58155931980436 0.5380096637216392
1.8680597273713422 12.76697055961524 73.45840098882836 121.34377205146703 0.5498122994993744
1.8867345476703064 12.733152491356417 67.07746830985535 127.4362578681556 0.5621123955422025
1.9046643319221528 12.697362066444224 61.320044530875826 133.8816806741981 0.5749401150154989
1.921812320115826 12.659579842004453 56.13192460639354 140.70516304553738 0.5883298520845293
1.9381402900636873 12.619751325901538 51.44492974761762 147.9345983213962 0.6023207418355007
1.9536352319033017 12.57790774774733 47.21095263292914 155.59874036563218 0.6169495201554919
1.9682646305376104 12.534018465490819 43.38310182661373 163.73075566724341 0.6322622433360735
1.9819919840894658 12.488057655808614 39.91941456509897 172.36445931976525 0.6483007460914807
1.9947907114263816 12.440011804699829 36.781669872663485 181.5392794451813 0.665118793660761
2.0066307520876836 12.38987513184327 33.9404889781602 191.29697747349218 0.6827701406779066
2.0174960822899144 12.337652309924254 31.358966552718538 201.68350450651042 0.7013139119396983
2.027345499474822 12.283308173792145 29.021004799666752 212.74906778609463 0.7208138102396048
2.03616851164765 12.22687749838756 26.89656920503539 224.54835982326816 0.741337764117111
2.043926830772625 12.168325119473556 24.966761048942182 237.14313844486097 0.7629650818423199
2.0506003576653797 12.107658023780203 23.20993669107205 250.5995012282553 0.7857761076879136
2.056182415604264 12.044929824866411 21.61416622793346 264.9909111403049 0.8098604729560622
2.0606516743526626 11.980143163757786 20.16115796509988 280.3991186622266 0.8353182314700899
2.063979896870176 11.913301593860425 18.83890959757789 296.91306169884876 0.8622541401252054
2.0661518559640797 11.844429029949552 17.63495469004894 314.6330838709914 0.8907889904897971
2.0671632179490707 11.77357893206703 16.5385660269846 333.66884915840905 0.9210499771043305
