M[M_sun], R[km], Lambda[1], P_c[MeV/fm^3], rho_c[fm^-3]
0.24162668629717493 15.618656898711224 2160425.4255784233 3.5677272577965504 0.1711233750220791
0.25364369838901435 15.277273161728704 1723203.816572969 3.7848134791731134 0.17388809668514607
0.2660382059798291 14.981302961718104 1382885.5624303713 4.0113886064672535 0.17666650549890664
0.2788142684481397 14.723521130720963 1116458.035599198 4.247708922322173 0.17945729045710937
0.2919676412271447 14.498450589525614 905877.9639179028 4.494399486001211 0.1822670155268733
0.3055036961192953 14.301207837482277 738708.4306196426 4.7516149523049585 0.18509136836685058
0.31941863782238855 14.128154998613413 605149.6439126134 5.020039181251218 0.18793700236895794
0.3337155627287028 13.975985858012253 497696.76805253315 5.29989403190695 0.1908004976260675
0.3483966167410029 13.842063665006636 411027.9496958676 5.591910673875235 0.19368820250177912
0.36345946578125193 13.723995173234025 340693.90034766967 5.896253161978699 0.19659512046905608
0.3789116471009896 13.62003168061428 283325.5688093236 6.213786900329891 0.19952896015847196
0.39474325238839536 13.528485809180978 236415.44399211888 6.544771339717271 0.20248593618987015
0.41096724086267483 13.4479250147419 197886.00617568576 6.88990481317596 0.20546969114321748
0.42757500914716545 13.37707577349069 166096.15720866894 7.2498941891757775 0.20848333135468827
0.4445688588987729 13.314963489398336 139817.20046067334 7.625001430621447 0.21152245147482218
0.46194933410865696 13.260622697429174 117990.9211327722 8.016169549092583 0.2145931210335834
0.47971317867270413 13.213183697187981 99828.44152096393 8.424106227210457 0.21769703158297363
0.4978696584134274 13.172005340643983 84648.44303849683 8.849256470363365 0.22083171120355566
0.516406425979442 13.136431632617576 71945.42044571223 9.292485278355846 0.22400045079061495
0.5353258616720701 13.105866709531984 61283.4723207693 9.754681245953778 0.22720622607602886
0.5546303884197572 13.079820870109572 52304.17181547608 10.2366538380859 0.23045038779834914
0.5743112718723377 13.057867033529844 44735.75518024282 10.73887982491868 0.23372970443811486
0.594366011810095 13.039567852899419 38331.6175118369 11.262592675944362 0.23705022362907754
0.6148031294696029 13.02452338975804 32905.92323225866 11.808735149393263 0.24041362851169285
0.6356044777449252 13.012446132607394 28297.92638796536 12.37828609610225 0.24382155175917497
0.6567749370054341 13.003030475743504 24374.560692631832 12.971942294549365 0.24727203240143986
0.6783060013394753 12.995988506166835 21031.03618431488 13.591014913247067 0.2507696819843868
0.7001932807677886 12.991066867238144 18175.070025320576 14.236708853829162 0.2543172218230991
0.7224263385587283 12.987991768322106 15732.074003384383 14.910213602581996 0.2579166361529836
0.7450126980984624 12.98665948533826 13636.22113554187 15.612568029217886 0.2615679148456262
0.7679321954087839 12.986750172602097 11838.30884978388 16.345019783908864 0.2652727690425709
0.791174751755759 12.988128959338352 10290.211939563464 17.109193458702322 0.2690359786274319
0.8147489725529721 12.990664218694171 8957.78072855023 17.906543833155904 0.2728599756544017
0.8386298417674356 12.994128723623483 7808.888726748188 18.73844523399954 0.2767459232542915
0.8628093612189803 12.998399083998999 6815.766924050386 19.606223827035276 0.28069414030559525
0.8872831560312221 13.003350837308886 5956.424929573261 20.511973768741456 0.28471106549984326
0.9120407111885517 13.0088454339354 5212.111753234066 21.457488825328944 0.28879971146667544
0.9370610046355187 13.014724359940377 4565.9658097946685 22.444264453769893 0.29296009248130317
0.962336865346696 13.020931310536687 4005.186941353043 23.474302935085955 0.29719582443006254
0.9878623841877318 13.027319882631641 3497.895869758397 24.550037117507234 0.30151309619783156
1.013602974644524 13.033778126274612 3092.4489491578697 25.67342241134134 0.3059136384703136
1.0395659190596163 13.040234503853942 2721.930469443871 26.846393175624495 0.31039851405907104
1.065715278867508 13.046557362525382 2398.7526317869924 28.072058360183043 0.3149765530160067
1.0920453065431035 13.05268834754899 2116.3361397334425 29.352487375258455 0.31964830209537776
1.1185434158564371 13.058529944681023 1868.9750428201778 30.69040613552403 0.3244182443096927
1.145171248503178 13.063992214563436 1652.4391521939806 32.089244885565094 0.3292946444777108
1.1719337996356063 13.068997258493285 1462.3735063296074 33.55090991132173 0.33427497603347256
1.1987886736608335 13.073461723310835 1295.7077050765306 35.079959175765005 0.3393729132700355
1.2257332038515725 13.077323654280294 1149.313776255529 36.67843540848058 0.3445853386542647
1.2527281071687704 13.08049277276464 1020.4032946249362 38.351359586772475 0.34992650098953704
1.2797683030690266 13.08293372385491 906.9108856183128 40.100984924128255 0.35539306687083994
1.3068110862841975 13.084518326230372 806.9185456050515 41.93279047365628 0.3609996428961154
1.333847528697538 13.085240551477376 718.761838763928 43.85021873984157 0.36674793344130285
1.3608549423723826 13.085036789658815 640.7641378183952 45.85801523114493 0.37264601331475683
1.3877839144179822 13.083777454054038 571.9346790631238 47.96148296447988 0.37870367678185335
1.4146407700881203 13.08149264247894 510.9330264457888 50.16534165668024 0.38492639215201835
1.4413627915862028 13.078039818753217 456.9867800524151 52.474878445769484 0.3913214851976371
1.4679563993920939 13.073448920746857 409.1202419891382 54.89647342540637 0.39790046586252364
1.4943653416750395 13.067584507632839 366.62920463862326 57.436314059857146 0.40467239113892767
1.520576513056864 13.060443896441079 328.9167858370403 60.101025707289054 0.4116470277754587
1.5465593891731022 13.051962174920696 295.3561429020366 62.897711037526854 0.41883491071103873
1.572274789709978 13.042084988665717 265.51949518536406 65.83399322347579 0.42624740627875507
1.5976991251920694 13.030759836262515 238.9805054811498 68.91806328926353 0.43389678073793725
1.622785880170063 13.017945126606547 215.29028781627008 72.15873204575749 0.4417962747611236
1.6475382813209243 13.00361139466775 194.1469460321972 75.56548709811548 0.44996018457835296
1.6718867464585798 12.987680954037424 175.27670022670458 79.14830383753721 0.45840289972806153
1.695824591012381 12.970140000393648 158.4003185835359 82.91728780901224 0.4671373400886836
1.7192898710005895 12.950900438474708 143.32215217817063 86.88521138328355 0.47618521771987365
1.7422908727988116 12.930000634723386 129.80868304998125 91.06370148317508 0.48556108199249176
1.7647710885440737 12.907358301500864 117.70541719761255 95.46673534785016 0.49528641886884023
1.7866993927889423 12.882928289582903 106.85002592599332 100.10808700624342 0.5053791813222741
1.8080380439695962 12.856680210892835 97.11133216592646 105.00422024985912 0.5158648426760991
1.8287503431940961 12.828552814928074 88.34916583440288 110.17166890768681 0.5267659298457023
1.8488306555028606 12.798595854883729 80.4857577393912 115.6279966869648 0.5381055872978892
1.8682187354811872 12.766694304051137 73.40127078566287 121.39352205902226 0.549913572283413
1.8868895448048402 12.732854492544707 67.02391367839007 127.48959975882704 0.5622194522911577
1.9048141128018883 12.697047707872112 61.2723324959686 133.93872398857056 0.575052736229862
1.9219583986853037 12.659241141622275 56.08752967197575 140.76643126165078 0.5884492258686432
1.9382742976019238 12.619361587615233 51.40568566123826 148.00045823980605 0.6024474266652973
1.9537737787692369 12.57752844224948 47.17443195820157 155.6693780028747 0.6170833855489937
1.9683922267427862 12.533610684872144 43.350031955604685 163.80673683299233 0.6324043859058347
1.9821113314769174 12.487622114331831 39.88958387712364 172.4462063960924 0.6484516831298784
1.9949045185451644 12.439556224023416 36.75509929441512 181.6272265658571 0.6652789905605277
2.0067424292738316 12.389407409459153 33.91085243572641 191.39169558760779 0.6829404165676253
2.017594575894801 12.337144989899405 31.336456342731893 201.78562342682574 0.7014951629500571
2.0274346819902207 12.282770560712661 28.998823497988866 212.85902559982713 0.7210061748561627
2.03624853808132 12.226317052676757 26.876846534791582 224.66717395152781 0.7415431371663711
2.043998051122276 12.16773487427474 24.948545370693235 237.27138756575405 0.7631837583746076
2.050656337530781 12.107044457506312 23.18848056093879 250.7383899572105 0.7860102426906764
2.056238575881647 12.04430976974648 21.598525563950304 265.1411956203052 0.810110555062127
2.0606918879592007 11.979472204569428 20.14609864191855 280.56172208968064 0.8355850587611681
2.0640015039892052 11.912590420697272 18.82535653596444 297.0893920602395 0.8625398269057292
2.066168436093892 11.843702202796061 17.62263193954958 314.8246303656426 0.8910956187534377
2.067159356235092 11.773070851323826 16.531084677827454 333.93709240114504 1.0705265478984298
