M[M_sun], R[km], Lambda[1], P_c[MeV/fm^3], rho_c[fm^-3]
0.24162668629717493 15.618656898711224 2160425.4255784233 3.5677272577965504 0.1711233750220791
0.25364177041555647 15.277356655580126 1683689.9423908023 3.7847965749730133 0.1738878859824467
0.26603757286360474 14.98128821487053 1383060.3116045247 4.0113530706197595 0.1766660760691615
0.2788119549900785 14.723558611880495 1116513.3727553212 4.247653552753652 0.1794566482535547
0.29196408680953967 14.498500911731991 905957.1563319842 4.494322829937065 0.18226616194380807
0.30549767106523923 14.301331868838899 738712.138467916 4.751514407109385 0.185090282286845
0.31941194512114435 14.128255982361276 605176.5370999684 5.0199140064588255 0.18793570363217385
0.33370863641702586 13.976109989296841 497753.86612577573 5.2997409322405025 0.19079895616646467
0.3483876438511231 13.842138382156529 411079.3977343485 5.591729267264129 0.19368644734291343
0.3634484101895917 13.724130601739915 340702.1124304239 5.896039373152681 0.1965931125191596
0.37890022618073604 13.620092601030635 283351.98390704405 6.213538142416212 0.19952669178582325
0.3947288471372276 13.528579746898446 236452.4401255834 6.544487871170746 0.2024834505536644
0.4109521802297675 13.44799458570425 197916.24645199798 6.889581162035258 0.20546693479428832
0.42755824961707534 13.37714060675011 166123.03945945363 7.249527318678276 0.2084802963290833
0.4445513638958725 13.315011622125807 139842.74603346045 7.624592354924984 0.2115191949692435
0.46192881833994903 13.26065702806378 118008.39926456856 8.015711133454014 0.21458957481800595
0.47969120656137304 13.213245315475659 99841.16037242176 8.423594897388227 0.21769318709753643
0.49784576385371265 13.172055054765666 84667.63142369043 8.848694111845463 0.22082763948760872
0.5163806569301964 13.136471657885023 71960.39608229598 9.291862791113255 0.22399606844161957
0.535296409483958 13.105904667338057 61298.957719264385 9.753994409862889 0.2272015236325871
0.554600159891854 13.079877378242974 52319.47803833649 10.235898176613018 0.23044535538772426
0.574277976765419 13.057896917769272 44745.70917715733 10.73805862147848 0.2337244320576518
0.5943335303369323 13.039563241108741 38344.309837426365 11.261693581819817 0.23704460607271713
0.6147667693532776 13.024535807167124 32914.591229973805 11.807752853815488 0.240407654515656
0.6355646606747742 13.012466215564068 28304.97438267411 12.377214957004743 0.2438152094650969
0.6567335264174873 13.003057394095244 24380.7534902827 12.970787230729503 0.24726543053030173
0.6782627792488015 12.995994226949994 21036.490800751053 13.589759523966011 0.2507626923132088
0.7001459097447494 12.991082816105093 18180.39236727278 14.235346408736907 0.2543098304919795
0.7223777612446207 12.988001168829614 15735.8251870475 14.908736938925943 0.2579088284756015
0.7449618117683949 12.986657440676229 13640.710372420355 15.610983930631 0.2615598179844241
0.7678788930166942 12.986757781188773 11841.368432197352 16.34330680041524 0.26526423024948625
0.7911200028125877 12.98813144991377 10294.07871432033 17.10734299429455 0.2690269804456367
0.8146905770847749 12.990645827824174 8960.894357473991 17.904546721967783 0.2728504995046143
0.8385689318292001 12.994121534399072 7811.079306571284 18.736310333567282 0.27673611449143243
0.8627463526088994 12.998389231660875 6818.221440229606 19.603923381333733 0.28068381965654765
0.8872173428545924 13.003327328280175 5958.526106276728 20.509496707250236 0.2847002106323143
0.9119742369231671 13.008825068765958 5213.927274684958 21.454823319506506 0.28878829854263954
0.9369895699548818 13.014708680591205 4567.642785715517 22.441421606395085 0.29294828491178004
0.9622659067930549 13.020914413318643 4006.858974634052 23.4712470744762 0.2971834136721417
0.9877857672337247 13.027302719971463 3518.6380613046977 24.546753862009624 0.3015000533823741
1.0135249055356133 13.033756655954026 3093.9298182893867 25.669924468993337 0.305900139237127
1.0394838640458353 13.040212755115105 2723.1697709176774 26.842637788536912 0.310384326882885
1.0656345414437791 13.046551810132211 2399.6348736860177 28.068027952061225 0.31496164278380834
1.091959350256293 13.052670527260338 2116.967705602922 29.348196229293556 0.31963285660468116
1.1184537220270452 13.058509896481029 1869.7409501030254 30.685803026407967 0.32440200654401175
1.1450802746160806 13.063965267386175 1653.0913637578683 32.08434483541552 0.3292778083880324
1.171840646114582 13.068979449066552 1463.0268143472397 33.54565545092459 0.3342572679601767
1.1986913490393738 13.073446252017565 1296.2371503454742 35.074325509105414 0.3393542842616827
1.225634542108857 13.07731172904017 1149.8611509183302 36.67243888224133 0.3445659947888592
1.2526267349137052 13.080476580286925 1020.8585339294406 38.3449312177276 0.34990613732564146
1.2796652006974698 13.082927297017598 907.3239378585408 40.09414146781753 0.3553718955032656
1.3067062584151246 13.084515853758365 807.3339293808468 41.925503646162056 0.36097761371265086
1.3337401996331588 13.085228057426283 719.0078628829083 43.84240685630175 0.3667247124834138
1.3607459604468983 13.085039152025164 641.0689714273915 45.84969465795836 0.3726218182181947
1.387673915301938 13.083785868416541 572.2139303726944 47.95261816749688 0.378678444708021
1.4145278102154988 13.081501119955604 511.18344943014137 50.15583544639837 0.3848997547032025
1.4412486202109922 13.07805913757214 457.1784078457127 52.46474591093001 0.39129366505330065
1.4678421363683274 13.073467082043205 409.30954706312014 54.88566970749909 0.3978713841969235
1.4942482360025162 13.06760987309275 366.80245061470794 57.42479066712916 0.40464196303329464
1.5204589542091849 13.060477552011584 329.0827552920485 60.08873018948621 0.41161516171769236
1.546441526116635 13.052000353275101 295.5155836339987 62.884586628182916 0.4188015080458216
1.5721552123676563 13.042133312453835 265.6593513701401 65.81997844613875 0.42621236060277395
1.5975793039189599 13.030817117578556 239.09656283782306 68.90309152360219 0.43385997723425795
1.6226665768317141 13.018015664899432 215.39314094927644 72.14273104900114 0.4417575894660771
1.6474183203280544 13.003685640037654 194.24819933704885 75.54837847670713 0.449919483573468
1.671767219709195 12.987765480040723 175.35877316713928 79.1300917798764 0.4583604112058983
1.695704208399592 12.97023342659023 158.47923547587635 82.89779466198532 0.467092544893589
1.719168989683077 12.9509996469794 143.3955953978827 86.8643368208246 0.47613794710638424
1.7421738638564859 12.930114685356877 129.88375541382035 91.04143681567268 0.4855115513026284
1.7646539569765842 12.90748338901468 117.77103176661578 95.44286613528799 0.49523404448674263
1.7865839789635602 12.88306546148266 106.90402544159988 100.08259246636406 0.5053241652112638
1.807924676483478 12.856826682263002 97.1617037141805 104.97696820557509 0.5158069729029395
1.8286378898421158 12.828713006662529 88.39846187192194 110.14244415963432 0.5267047128130334
1.8487201668944253 12.798766705976707 80.52515373061226 115.5966648245787 0.538040866481994
1.8681101708262762 12.766883221339354 73.43803875810758 121.35995505684538 0.5498452421679149
1.8867854897891863 12.733054521490676 67.05965716063162 127.4536091974834 0.5621472195217148
1.9047118026439875 12.697260336012548 61.302794691252636 133.900235957051 0.5749767489052147
1.9218602655985195 12.659470909317282 56.11795944630685 140.72509253941274 0.5883686823174019
1.9381793076875748 12.619603257046494 51.43260358158121 147.95602132548922 0.6023619500497345
1.9536843069228287 12.577792415020092 47.20395740087409 155.62171738227534 0.6169930639020624
1.9683064416635982 12.53388553595022 43.37296836575876 163.75549806765213 0.6323085718485765
1.982031308874997 12.487916350574627 39.91042144413217 172.39104978199745 0.6483498424726515
1.9948267379158735 12.439863711486211 36.77312908722548 181.5678865145862 0.6651709018343415
2.006666277744673 12.389719727667494 33.929603001903445 191.32778684219633 0.6828255270495289
2.0175280437743304 12.337487266664725 31.351769854820432 201.71672100960006 0.7013728679561446
2.0273737383606245 12.283134732520784 29.012758856144224 212.78483390614556 0.7208763809268148
2.0361952896825817 12.226694453091863 26.889910817654805 224.58700645054282 0.741404565732401
2.0439494450288063 12.168131237976063 24.96053681572554 237.1848537837615 0.7630362103271816
2.050620959979531 12.107457311122197 23.204777567860845 250.64467704319821 0.7858522639004158
2.0561991625161897 12.044720840746463 21.608834862946164 265.0397933481265 0.8099418157898739
2.0606653792242384 11.979924766756216 20.156685757645473 280.4520572718234 0.8354051829356194
2.0639870776433877 11.913074622411864 18.833320844053855 296.97041507870944 0.8623470628772222
2.066157039345236 11.844192468632244 17.630999342141713 314.69538609082923 0.8908887240898539
2.0671633372620106 11.773334537878293 16.53482086650668 333.7365109486972 0.9211568434973049
