M[M_sun], R[km], Lambda[1], P_c[MeV/fm^3], rho_c[fm^-3]
0.24162668629717493 15.618656898711224 2160425.4255784233 3.5677272577965504 0.1711233750220791
0.2536385925044859 15.27742867327947 1723283.898157048 3.784736667138122 0.17388713926018526
0.2660306950368218 14.981449371708576 1383314.8792194203 4.011227134756398 0.17666455420857502
0.27880026219546455 14.723801819410015 1116660.104076736 4.247457330686805 0.1794543723732796
0.2919494034751391 14.498750347974497 906202.2489557246 4.494051175165563 0.18226313700487962
0.3054784303791558 14.30161062738102 738950.8087732292 4.751158098615591 0.18508643347508702
0.31938896551506707 14.12850123698049 605321.9963780419 5.019470422238462 0.1879311012746798
0.3336804393521076 13.976328621511982 497959.9883409006 5.2991983973975865 0.1907934937408246
0.3483550561238238 13.842365906182179 411243.65142452426 5.591086429953373 0.1936802277150934
0.3634107104920876 13.724369495880465 340858.8171282742 5.895281795278237 0.19658599718744224
0.37885711164157676 13.620376335583906 283504.7437724082 6.212656660225375 0.19951865372961647
0.39468139243713574 13.528833035934413 236596.8731525689 6.543483402583792 0.2024746427211274
0.41089892074561835 13.44821633950191 198031.66714937595 6.888434321348272 0.20545716781774492
0.4274994637005117 13.377368232401674 166228.66592759496 7.248227348948781 0.2084695420126649
0.4444855209619446 13.315250096374879 139928.64947808773 7.6231428516341655 0.21150765599102103
0.46185865431168677 13.260866589308625 118097.57729166863 8.01408682111488 0.21457700944886263
0.4796149204505122 13.213408321096221 99921.415016207 8.42178311573529 0.21767956503233066
0.4977610967096416 13.172236728110116 84734.03613938918 8.846701543248889 0.22081321243961047
0.5162894350598745 13.136630683551054 72023.0389098007 9.28965719927125 0.22398054093754924
0.5351982028450852 13.106047736249499 61352.143660034635 9.751560847368276 0.22718486217558928
0.5544953957496065 13.080005339075768 52366.28997319211 10.233220788106127 0.230427525024721
0.5741645969430195 13.05799363871537 44785.092588618165 10.735149041227546 0.23370575165116564
0.5942155698444507 13.039671937338099 38376.778688226965 11.258508067908192 0.23702470292415126
0.614638363256553 13.024624930175243 32946.97933812722 11.804272596878564 0.240386488746799
0.6354289468312522 13.012532088350259 28102.070185595418 12.373419974598129 0.24379273909266838
0.6565858032356031 13.003090736132373 24407.345636352868 12.966694949409694 0.24724204072839664
0.6781106936251183 12.996032221489173 21058.98962247826 13.585311852327473 0.250737928869128
0.699986778576228 12.991102947339247 18199.850194879757 14.230519510921122 0.25428364433575207
0.7222087144396051 12.98802535942369 15754.576515047838 14.90350544806895 0.25788116761141516
0.7447828888064534 12.986651031333611 13655.540018657026 15.605371877434065 0.2615311328911034
0.767691241901278 12.98675124952704 11854.847750446557 16.337238214032965 0.2652339798684247
0.7909229505558277 12.988114440630348 10305.931509047734 17.10078743321687 0.2689951029720152
0.8144853393350872 12.990629173317013 8972.260414408714 17.897471727093595 0.27281692915982264
0.8383527791285947 12.994087400322963 7820.426113043625 18.728747279209124 0.2767013661698861
0.8625221802983561 12.998343072696038 6826.581086877323 19.595773968672933 0.2806472583815042
0.8869840764175346 13.003276701841921 5966.120483762247 20.500721733850167 0.2846617573382941
0.9117307763184456 13.008772412338628 5220.506271177157 21.445380899303533 0.28874786883373244
0.9367374606826826 13.014651572300664 4574.153754330136 22.431351062974795 0.2929064576077101
0.962002542046988 13.020846611698925 4012.2909410178845 23.460422084204374 0.2971394501702298
0.9875154853881287 13.02724187286107 3523.3802998475903 24.535123500203113 0.3014538514761088
1.01324513337813 13.033690220183555 3098.0349929242025 25.657533741738323 0.3058523210343305
1.0391933854284798 13.040151396078578 2726.884428964825 26.829335285939365 0.31033407242344707
1.0653359434632013 13.046478713001648 2403.019216657128 28.053751440196393 0.3149088277585172
1.09165152867263 13.052600899030038 2120.099876569567 29.33299628943653 0.31957814615400654
1.1181365372550858 13.058446385502567 1872.513910197262 30.66949827458644 0.3243444904754398
1.1447547501178188 13.063901681925266 1655.5992658318257 32.06691106064334 0.329217672861697
1.1715056756061089 13.068922661291323 1465.2056422787034 33.527043981136416 0.3341945453880677
1.1983546108167078 13.073399504273796 1298.2365248421036 35.054371147108604 0.339288300596199
1.2252842655123408 13.077262315233806 1151.5818161735087 36.65119951056744 0.3444974798636233
1.25226827408608 13.080444150993323 1022.4300150237009 38.32216259631179 0.3498340113243743
1.2792988306988768 13.082898214245304 908.7453508688985 40.069902924369984 0.3552969095474131
1.3063316136211334 13.084497632843828 808.5908308801004 41.89969504222712 0.3608995903929692
1.3333584158034655 13.085227383219445 720.1780525125139 43.814738997555864 0.3666424692984582
1.3603578899120894 13.085052373465388 642.1804191918612 45.82022549043278 0.37253612588211416
1.3872808794531997 13.0838122308107 573.1315451324274 47.92122189032595 0.37858908076825376
1.414120304727588 13.08152940248447 512.0487349714901 50.12216799393932 0.3848054147911823
1.4408513843362625 13.078134734372108 457.95628324262714 52.428860702021 0.3911951377146624
1.4674319579448962 13.073548316333847 410.00790600028915 54.847407939677566 0.3977683903991769
1.4938355973125916 13.06771232779508 367.42438188566564 57.383980679310426 0.4045342021811269
1.520041877409504 13.06060854121231 329.6278856405041 60.045186311153365 0.4115023098830178
1.5460207738343676 13.052150411933804 296.02895884431166 62.83810791379331 0.41868321602247843
1.5717333315671347 13.042306231134221 266.1245259527337 65.7703472819686 0.42608825176706117
1.5971495209038633 13.031013214275925 239.51050112982392 68.8500720926997 0.4337296451903007
1.6222431752850732 13.018232332269497 215.7755231968095 72.0860676381525 0.4416205954524916
1.6469922242786204 13.003944313223624 194.58869764495782 75.48779360733181 0.4497753536049835
1.6713465529937286 12.98806186590852 175.6823038172645 79.06544645953626 0.45820931080053184
1.695282767148499 12.970562067167231 158.78306430863492 82.82876770709416 0.4669339211522882
1.7187482000583167 12.951361155882283 143.6543065686342 86.79041934534496 0.47597056039251273
1.7417627782947114 12.930535704313062 130.11848190247989 90.9625980427139 0.4853361640523043
1.7642434789188288 12.907932944510943 117.98540101806641 95.3583471334014 0.4950485909244274
1.7861735683172908 12.883546048683938 107.10535673220204 99.99231965942053 0.5051293604102545
1.8075190151861917 12.85734852932293 97.33525759506712 104.88047379917732 0.5156020668286936
1.8282482389795771 12.829301379927712 88.5659835528566 110.03880997962871 0.5264873755186378
1.8483303215458653 12.79937699425752 80.6750957080155 115.48572840572439 0.537811710121856
1.867729680111882 12.767540484475765 73.5790916740407 121.24110672172614 0.549603310510668
1.8864128235664868 12.733765077752446 67.18306088589839 127.32618217430677 0.5618914745029573
1.9043529295965143 12.698015511091368 61.4172520370041 133.76396863751293 0.5747077149058194
1.9215000257200638 12.660247064789921 56.222173076149964 140.57873506194073 0.5880835222943507
1.9378488217103222 12.620497968696263 51.52743150467356 147.7986979152718 0.6020593306428536
1.9533605784386028 12.578709696432002 47.28658051542897 155.45298385115632 0.6166732969701273
1.9679988601194567 12.534857176111347 43.453054734046624 163.57380282982945 0.6319683595022333
1.9817401729250406 12.488946001801509 39.98266486941481 172.195785879136 0.6479893090257313
1.9945504572473434 12.440952700643654 36.83969339144056 181.35781672829063 0.6647882568058215
2.0064100566477183 12.390869161836958 33.993485247888074 191.10154811716265 0.6824188149802105
2.0172983359358048 12.338718803676105 31.409625072293316 201.47280980748843 0.7009399496322526
2.027155050941456 12.284401630128004 29.067311818876327 212.52207219889502 0.7204164932131089
2.0359869324558812 12.227997794126198 26.935752776481394 224.30322981166097 0.7409140510563301
2.0437793427340067 12.169538690996225 25.00384453124494 236.87854863873326 0.7625139319172386
2.0504808194547244 12.108949641718484 23.24519355168701 250.3129680786132 0.7852930775652555
2.0560777541534803 12.046257081624518 21.645257272152044 264.6808755844413 0.8093445557784191
2.060569444887775 11.981527389824384 20.19058498889339 280.0632252955856 0.8347663061746228
2.063921311875394 11.9147490693425 18.865774343179922 296.54931183147585 0.8616648001629544
2.0661166428500723 11.84593363443504 17.65958240919073 314.2379555867879 0.8901564678225394
2.067152355017769 11.775146994119488 16.561303230568548 333.23973881115415 0.920372231587934
