M[M_sun], R[km], Lambda[1], P_c[MeV/fm^3], rho_c[fm^-3]
0.24162668629717493 15.618656898711224 2160425.4255784233 3.5677272577965504 0.1711233750220791
0.25364336071244564 15.277310469636221 1723288.532038353 3.784807745843587 0.1738880252219594
0.2660378622400629 14.981321451406764 1383137.3504017568 4.011376553891608 0.1766663598506429
0.2788137660746373 14.723549981114315 1094001.1336002883 4.247690142771109 0.1794570726426172
0.29196624713645625 14.498469820462429 905969.804841174 4.494373486714101 0.1822667260187772
0.305500766268763 14.30129264628375 738669.5194240259 4.751580850519791 0.18509100000248652
0.31941658679321094 14.128193223409223 605166.7212194924 5.01999672579702 0.18793656187723434
0.33371346434706783 13.976004394143718 497717.1597531519 5.29984210508992 0.19079997480918218
0.3483933965133756 13.842092957738123 411038.90241021395 5.591849146079427 0.19368760720342898
0.36345536476177454 13.724049087928565 340685.7991440445 5.896180650948382 0.19659443943011437
0.3789081117959456 13.62004631246732 283335.13694385585 6.21370252862982 0.19952819079015746
0.394738040887413 13.52855118466783 236429.65168095322 6.544675194979143 0.20248509313040194
0.4109626474259684 13.447911749440948 197885.57695287393 6.889795039403171 0.20546875626370362
0.4275687280310265 13.377107476903797 166097.50573607069 7.249769756328973 0.20848230195363607
0.44456331235282825 13.314986101120828 139825.76974430552 7.624862682649773 0.211521346951753
0.46194292235926604 13.26061071802662 118004.4891447989 8.016014065997917 0.2145919182461435
0.4797057581149179 13.213198467332882 99828.4559352018 8.423932796638248 0.2176957276275221
0.49786092137955307 13.172035343791322 84658.47840814808 8.849065731803185 0.22083033017488363
0.5163971142632136 13.136444241465178 71948.76148497133 9.292274145194652 0.22399896439999753
0.5353155442736713 13.10587063530347 61286.93811880759 9.75444828675018 0.22720463111400852
0.5546202387721403 13.079846552285174 52310.692367184056 10.236397534422489 0.2304486809159352
0.5743004860952283 13.057879876155086 44739.35877524758 10.738601290446184 0.23372791616052227
0.5943562072176473 13.039542654217856 38336.602582117615 11.262287722099295 0.23704831827193504
0.6147903843495321 13.024548875368257 32909.35930480125 11.80840197477931 0.24041160225415042
0.6355908091512545 13.01244348976944 28300.248387918262 12.377922786943866 0.24381940057868956
0.6567616561999571 13.003033626428016 24376.775602501963 12.971550519211428 0.24726979317426323
0.6782924287799175 12.995992060860246 21033.280462361065 13.590589108708926 0.2507673112187983
0.7001778649338709 12.991067019734189 18040.964355784454 14.236246737158917 0.2543147148176094
0.7224097649214125 12.988007667965762 15733.886818649837 14.909712744171857 0.2579139879257692
0.7449948934580102 12.986656713310568 13637.721117503368 15.612030729987767 0.2615651685283665
0.7679134352587607 12.98675443267631 11838.478454160018 16.344438768101718 0.26526987282449604
0.7911567506203623 12.988133384214407 10291.708932334139 17.108565810532895 0.26903292658692346
0.8147288004111326 12.99066382897813 8958.888890773698 17.90586644353473 0.27285676148908483
0.8386091409594841 12.994126241898128 7809.734692396062 18.73772110733068 0.27674259626692127
0.8627865929517983 12.998400796681448 6816.543160604304 19.60544354847997 0.28069063968781355
0.8872608562264571 13.00334141796916 5956.911085683972 20.511133583123286 0.28470738367619164
0.9120190284365612 13.00882885654205 5212.793670394536 21.456584720337865 0.28879584035092065
0.9370372153381938 13.014719808470915 4566.51825479398 22.443300195428225 0.29295608750111735
0.9623129518892732 13.02092304585456 4005.5781404536538 23.473266423443732 0.29719161484830586
0.9878356850079066 13.027318870676442 3517.6900959349655 24.54892347419345 0.3015086722216172
1.0135764476851619 13.033777586350974 3093.216546810008 25.672235946917596 0.3059090596756022
1.039538356224 13.040231056456328 2722.4517493065764 26.84511938636472 0.3103937019126182
1.0656868553427146 13.046557125658483 2399.1344327038028 28.070691284029298 0.3149714956068637
1.0920155133627099 13.052682817731188 2116.581417531895 29.351031857109586 0.3196430631237345
1.1185124329285738 13.05852113824507 1869.2384267647212 30.68884479931826 0.3244127365950548
1.1451409621029482 13.063977270912343 1652.615479180038 32.08758282687904 0.32928893380777174
1.17190212913299 13.068993462265295 1462.6652128760486 33.5491276360032 0.33426896958188884
1.198755228272848 13.073450137647544 1295.8641132682967 35.07804827265613 0.33936659443150147
1.2256997916609342 13.077317619405404 1149.4949156363698 36.67640142250897 0.3445787773303745
1.2526932513402314 13.08048960185113 1020.544101573118 38.349179117918375 0.34991959374221354
1.2797328374323909 13.082927115066541 907.0540716953209 40.09866365604263 0.3553858856428686
1.3067754595780763 13.084517690251017 807.054078025497 41.93031881202244 0.3609921706885412
1.333811844634478 13.085229769383922 718.8253997110066 43.84756897584329 0.3667400569723429
1.3608193197890097 13.08503270157463 640.8986317083533 45.85519291648566 0.37263780640711014
1.3877470442759252 13.083780264610857 572.0344450687439 47.95847604536328 0.3786951181193929
1.414602327961512 13.081494740987633 511.01092523691204 50.16211716457765 0.3849173567698005
1.4413247789924108 13.078048058764589 457.05824187086563 52.4714414990355 0.39131204862961827
1.467917608635049 13.073456627939184 409.1939049135466 54.892808807131885 0.39789060136919596
1.4943259893114875 13.067594792339028 366.678582354464 57.43240532061742 0.4046620699138088
1.5205367021944476 13.060453785841784 328.97071122086436 60.09685505480117 0.41163621877536344
1.5465190376772349 13.05197422710469 295.4091210264747 62.89325921529661 0.4188235804695272
1.572236444242687 13.042099311638525 265.5743663044642 65.82923937721 0.42623551870095855
1.5976587032595893 13.030779176563545 239.02289433825743 68.91298481967137 0.43388429687474117
1.6227452927982584 13.01796731691631 215.31389514751098 72.15330444619762 0.4417831525604529
1.6474971652367085 13.003636651884174 194.1793725283183 75.55968377535224 0.4499463786110282
1.6718457047520712 12.987709383215774 175.30318905511626 79.1421262126344 0.4583884873998399
1.6957839701930957 12.970171107961322 158.42949830509207 82.91067561676357 0.467122145290154
1.7192485565494897 12.950932908059658 143.3441613674313 86.87813059001397 0.47616918320693463
1.7422516609407812 12.930039077640766 129.8338336749166 91.05614914140224 0.48554428081196427
1.7647321482832607 12.907400761704778 117.72945404998724 95.45863871238883 0.49526865304274725
1.7866599156280005 12.882976211861742 106.86688511757745 100.09943902740807 0.5053605193591293
1.8079991640628033 12.856730279455443 97.12793235564911 104.9949760888169 0.5158452126807495
1.8287118388189398 12.828607408351964 88.36784997458133 110.16177965642906 0.5267452540519398
1.8487926615648904 12.798654731613254 80.49752631882966 115.61736855772544 0.5380836332503661
1.868181553880806 12.76676084823608 73.41392974447095 121.3821357164036 0.5498903938624705
1.886854678980007 12.732922432247745 67.03740909925314 127.47739128374465 0.5621949499790805
1.904779655976279 12.697119601649426 61.283104063611816 133.9256683083346 0.5750269602633235
1.9219253170365254 12.65931956029417 56.09960035489229 140.75240854886383 0.588421904291566
1.9382419311387233 12.619443142302137 51.414086141734316 147.9853845314721 0.6024184316373532
1.953753132346882 12.57765212213295 47.183017455110445 155.65321072007708 0.6170527469297243
1.968363094545702 12.533704780313073 43.35700340559743 163.78937801593884 0.632371959491317
1.982083832020679 12.48772076541021 39.895451254003866 172.4274962377851 0.6484171368682904
1.9948787741006675 12.439660520401905 36.76153789129861 181.60709724856977 0.6652423247299801
2.0067118237750146 12.389502276074596 33.91766496393381 191.37001641350858 0.6829014436563445
2.017572347636459 12.337260997738504 31.34178263599997 201.76225022218838 0.7014536778174023
2.0274136854652496 12.282893456411319 29.003830456907348 212.83385808200617 0.7209621457894597
2.0362300622649596 12.226444981845546 26.881354109286537 224.63997921143377 0.7414961304107036
2.0439811371638097 12.167869699397032 24.95204487526775 237.24203313510284 0.7631337063738033
2.0506481578707088 12.107184312320022 23.197249453525856 250.7066000693532 0.7859566521255003
2.056221067003465 12.044434379861885 21.601693104648874 265.1067971787077 0.8100533140568015
2.0606820392969167 11.979626155866113 20.149823176608198 280.5245206376358 0.8355240397212524
2.064002055974872 11.912762560487321 18.829203765403243 297.04903150116786 0.8624744355681832
2.0661644936820047 11.84386826810068 17.625782009151674 314.7807866590385 0.8910254336025579
2.0671651282179644 11.772996403170009 16.529637790536135 333.829258757807 0.9213033312531511
