M[M_sun], R[km], Lambda[1], P_c[MeV/fm^3], rho_c[fm^-3]
0.24162668629717493 15.618656898711224 2160425.4255784233 3.5677272577965504 0.1711233750220791
0.25364672290121876 15.277185306896536 1723017.234740741 3.7848726551475207 0.17388883428511964
0.2660455460357135 14.981157446968103 1382936.833997614 4.011513007407702 0.17666800881085554
0.2788231248053147 14.723397041590827 1116245.2930676755 4.247902758174175 0.1794595386608882
0.29198213153439284 14.49821283354911 905675.2306283012 4.49466784447631 0.18227000376077626
0.3055209724648305 14.30099758097327 738457.9841418243 4.751966946931266 0.18509517058060654
0.31944116093159824 14.1279141948605 604926.3016113064 5.020477406281644 0.18794154912278796
0.3337434077671936 13.975703428089057 497509.4106925645 5.300430026375667 0.19080589420099184
0.3484284496195356 13.841795907697854 410863.0881323404 5.592545777435665 0.19369434730343726
0.3634957496135303 13.723735149703955 340520.2285843963 5.897001645203559 0.19660215038189993
0.3789524714034097 13.619797126308063 283187.1916440454 6.214657822938385 0.19953690192400234
0.394790271582644 13.52822551321928 236308.26439999088 6.545763798869944 0.20249463871589246
0.41102017253001066 13.447681940016555 197776.3705064379 6.891037970960628 0.20547934159042291
0.42763311333633075 13.37685061974238 165986.33871841544 7.251178681403819 0.2084939576297037
0.4446325908067397 13.314745124581782 139726.6711963041 7.626433708380964 0.2115338533267395
0.46201790464496717 13.260386279858992 117907.17826092124 8.01777459830395 0.2146055373868599
0.4797904650278657 13.212994545025577 99751.16668264683 8.425896566670614 0.21771049243286536
0.4979520308107941 13.171841650431782 84589.44017860599 8.851225499875326 0.22084596781852384
0.5164977447009986 13.136264172363564 71893.03164829811 9.294664867648569 0.22401579523511728
0.5354225276153762 13.105715460407101 61237.833372526606 9.757086176643186 0.22722269150453253
0.5547338659671901 13.079702847718924 52266.275692863775 10.239284209827623 0.2304678084809105
0.5744237601476186 13.05773681624499 44697.16441849458 10.741755302201183 0.23374816589297992
0.5944869687549635 13.039456598331238 38297.823710910845 11.265740928216552 0.23706989396624592
0.6149292065164191 13.024435422752662 32872.595633934536 11.812174779436974 0.24043454720125462
0.6357409446023227 13.01237657839095 28268.65321342335 12.382036867467555 0.2438437603547473
0.6569183506853078 13.002979448256932 24350.258979691444 12.975986982810191 0.24729515018093626
0.6784569358174185 12.995938532325265 21012.290561401485 13.595410963434533 0.2507941580140583
0.7003529839685321 12.991037925226747 18155.86323727795 14.241479842561446 0.25434310466981996
0.7225940250333174 12.987999363829195 15715.833407358912 14.91538462155804 0.2579439772795403
0.7451894681677278 12.986635710043773 13621.218851982003 15.618115321183335 0.2615962689224894
0.7681162792071745 12.986769437880797 11823.92569820798 16.351018484146174 0.2653026710587279
0.791369850866276 12.988142951474742 10279.579273558533 17.115673680914508 0.2690674897536624
0.8149518147329653 12.99067986106216 8888.604034371929 17.91353768785842 0.2728931609948805
0.8388403087380685 12.994160200989967 7799.302890950273 18.745921697801034 0.27678027373703307
0.8630293377105146 12.998439267923665 6807.101103527356 19.614280130597756 0.28073028385883536
0.8875179385610018 13.003402131743195 5948.8979868225 20.5206486966896 0.2847490803791809
0.9122840544032079 13.008890429612618 5205.520893409751 21.466823818580625 0.28883968120448655
0.937311001636265 13.014790550844095 4560.612146911196 22.454220621468558 0.2930014447337412
0.962600686086782 13.021000411436319 3999.991535039136 23.48500524536996 0.2972392896920921
0.988129959208816 13.027400303078537 3512.608229217051 24.561535958202427 0.3015587756331576
1.0138801906157742 13.033850665737669 3088.228174336709 25.685673265775097 0.30596091687695487
1.0398509882683191 13.040311071198639 2718.352298087934 26.85954584481695 0.31044820247488497
1.0660101892574032 13.04663244784275 2395.4691520659794 28.086174427529823 0.31502877448725897
1.0923500406650424 13.05275894611506 2113.1748262806404 29.367516803049703 0.31970239880731055
1.1171629424868972 13.057719261651368 1880.2205047069165 30.652695226158848 0.5608109519516096
