M[M_sun], R[km], Lambda[1], P_c[MeV/fm^3], rho_c[fm^-3]
0.24162668629717493 15.618656898711224 2160425.4255784233 3.5677272577965504 0.1711233750220791
0.2536440220497162 15.277275539208926 1723144.2619468735 3.7848201222743563 0.17388817948819835
0.26603994190343044 14.981251831477028 1382983.223435774 4.011402571592692 0.1766666742592059
0.278814906370675 14.723512583067556 1116396.4539454947 4.247730681934532 0.1794575428358217
0.29196939110323683 14.498426438065808 905863.4945370483 4.494429611090046 0.18226735097672914
0.3055045553012836 14.301250999281587 738694.2751729712 4.751654465756926 0.18509179518754437
0.31942099131945134 14.128148498986437 605098.4700463525 5.020088374132316 0.18793751276408605
0.3337191241636192 13.975975370810072 497678.72289101785 5.299954199329448 0.19080110341217624
0.3484001895157593 13.84203345115528 411009.59704755293 5.591981966062006 0.19368889227329794
0.36346298844062197 13.723980176314356 340653.6361555541 5.896337180603976 0.19659590958976494
0.37891587819187417 13.620018167758356 283300.4610248382 6.21388466213339 0.199529851628407
0.3947483636247524 13.528458458340737 236422.72187245122 6.544882743196889 0.20248691304788768
0.41097303375388566 13.447878580846783 197868.9895793047 6.890032008960155 0.20547077439589131
0.4275810476715926 13.377060193366722 166089.87268096238 7.250038370845209 0.2084845241326889
0.4445760754485805 13.314947288980841 139805.37066359835 7.625162199672795 0.21152373129984506
0.46195718192533897 13.260574084974708 117979.07410600777 8.016349709706782 0.21459451472158783
0.4797225646964562 13.21314462115837 99809.28901784419 8.424307184239861 0.21769854249890197
0.49787933510051063 13.171983789136933 83767.8305656644 8.849477482848279 0.2208333114283778
0.5164172300601475 13.136400186680108 71939.99850651278 9.292729922944472 0.2240021731037707
0.5353355421732507 13.105844232995763 61277.80833498901 9.754951181383094 0.2272080741968631
0.5546416977078422 13.079829590803808 52300.8795032153 10.236950823884017 0.23045236560791008
0.5743242704484153 13.057840498073395 44731.97111971693 10.73920257068316 0.23373177656589697
0.5943807878096269 13.039523098091632 37994.63703024961 11.262946035268662 0.23705243142453028
0.6148174405071248 13.024504273219266 32901.96935284084 11.809121209732313 0.24041597640268172
0.6356211912339079 13.01243456627009 28292.51529655446 12.378707075141067 0.24382404440730168
0.6567915248850072 13.00302757519853 24371.767483468637 12.972396259087088 0.24727462707658054
0.6783237436868356 12.995971638922432 21028.734076899498 13.591508309626537 0.2507724290832389
0.7002105306075791 12.991069540830932 18173.08213591884 14.237244327531078 0.25432012679406585
0.722444572408424 12.988004270946453 15730.091305654165 14.910793969062897 0.25791970476933895
0.7450327359931438 12.986645323811612 13634.503657097892 15.613190622262188 0.26157109712828636
0.7679525351565388 12.98676153375151 11836.80695076094 16.34569303464062 0.2652761250286116
0.7911966140970146 12.988142908349761 10289.208739853697 17.10992074598784 0.26903951517922126
0.8147694897927893 12.990664369619518 8956.19349591209 17.907328759874368 0.2728637000755558
0.8386515783503118 12.99412860988923 7807.279682131033 18.7392843187104 0.2767497784143838
0.8628356975046998 12.99839705859159 6815.0399837183195 19.607127979741552 0.28069819666856904
0.8873131356241023 13.003363604754197 5955.604188281636 20.512947341050918 0.28471533184465814
0.9120694793016839 13.008841535435222 5211.788543149884 21.458536466834644 0.28880419716421946
0.937089240948745 13.01472978332499 4565.427792898146 22.445381800419373 0.2929647333031644
0.9623666970807455 13.02093842101067 4004.5194798589737 23.475504008570358 0.2972007023463564
0.9878916988272332 13.027336305471533 3516.703875953706 24.55132757107812 0.30151822255726163
1.0136340662568013 13.033795936957427 3091.93569631699 25.674797249883255 0.3059189442370258
1.0395987891259568 13.040244443356771 2721.556421955031 26.84786920652098 0.31040409023800974
1.0657485996932912 13.04656932754903 2398.4362221549695 28.073642492556395 0.31498241341048927
1.0920799184854668 13.052702019432118 2115.8583891544954 29.354173994739558 0.3196543728899201
1.118577716468461 13.058532614913375 1868.6982679370788 30.692215378228457 0.3244246265305686
1.145208286764267 13.06399292089314 1652.1625965085614 32.09117084659215 0.3293012618901002
1.171971548870326 13.069002767854087 1462.1294644039328 33.552975181453746 0.3342819362067557
1.1988273655306698 13.073457081610165 1295.491523408948 35.082173502385 0.3393802354478625
1.2257723189967222 13.077332974503953 1149.122264832547 36.680792365900295 0.34459294183405154
1.2527674192864995 13.080497389903533 1020.2209666034432 38.35388136924966 0.34993447615921136
1.2798091847561475 13.082937191187451 906.7589485040264 40.10367479134495 0.35540138842138186
1.3068525430416948 13.084520624351056 803.3975250818902 41.93565462104417 0.36100830164758546
1.3338905504272056 13.085232870884063 718.6327972578993 43.85328927833761 0.3667570606696786
1.360897340601556 13.085035916786865 640.6621674183406 45.861285727095904 0.37265552347271896
1.3878285038170641 13.08377904184723 571.8258045153198 47.96496738673234 0.37871359457237985
1.4146850921688332 13.081485973090338 510.85522919036595 50.169078211870044 0.38493686239143704
1.441408108069731 13.078034042528259 456.90257554546287 52.47886120237048 0.3913324203550535
1.468003002476928 13.07343929663235 409.04119050911055 54.90072001808419 0.3979118969262793
1.4944111233717898 13.067575905321004 366.54502785229147 57.440843551681624 0.40468435149287485
1.520620494550547 13.06043062812495 328.8455356300423 60.1058587176215 0.41165955339568133
1.5466062795123867 13.051943870041637 295.30705462497485 62.902869882666 0.41884804038206425
1.57232186600316 13.042064007874163 265.47283773688804 65.83950207148655 0.42626118183135725
1.5977462025617766 13.030737061765066 238.93163911658837 68.9239483305805 0.43391124731086267
1.6228331207858466 13.017919530944516 215.24830539821028 72.16502168135364 0.4418114810893591
1.6475850796961244 13.00358179882798 194.1053168064697 75.57221214724717 0.4499761833108649
1.6719341637145646 12.987646796425452 175.24408108669857 79.15546265300135 0.4584196011626372
1.695872203873942 12.970101790941966 158.37529323046135 82.92495023350102 0.4671549483178422
1.7193517584640914 12.95089211101717 143.28483820361154 86.89341685930634 0.4762037990858943
1.7423374550493693 12.929953095520748 129.78357450295172 91.07245342626032 0.485580551844382
1.764818260821517 12.907307582683215 117.68436612565709 95.47611806500534 0.4953070066453376
1.7867446623960674 12.882873137294872 106.82571017368721 100.11810866715601 0.505400807631746
1.8080831870128908 12.856622122251483 97.08934901493774 105.01493281982182 0.5158875908408693
1.8287938155777024 12.828490922688536 88.3371282799493 110.18312906813902 0.5267898899927161
1.8488741623759226 12.798528460118495 80.46808657326858 115.64031313369948 0.538131028826764
1.8682617015122651 12.766622341968702 73.38495480226698 121.40671720030299 0.5499404327555808
1.8869302059799387 12.732775996055004 67.01348611272398 127.50374767401571 0.5622478470440532
1.904853806804083 12.69696432562873 61.25898034856095 133.95385373481744 0.5750826070466979
1.9219972790041464 12.659150373083737 56.07769617475729 140.7826817153922 0.5884808879322667
1.9383114883118968 12.619279009676484 51.39450714081582 148.01792671172984 0.6024810281401534
1.9538092661855366 12.577426327379237 47.16265520248767 155.68811383963435 0.6171188918351368
1.9684280109461985 12.533502253276803 43.34240093339444 163.82685356755618 0.6324419641331817
1.9821434169337304 12.487506562458627 39.88196399855241 172.46788924360027 0.6484917181370482
1.9949348022917215 12.439434419810864 36.747532290539375 181.65055412504273 0.6653214820330393
2.00677088062372 12.389279926073588 33.90472681968764 191.4168193364034 0.6829855818321492
2.0176196252198535 12.337011299385642 31.329464566127026 201.8127104625417 0.7015432397665372
2.0274597782471595 12.282628675483128 28.993365119957186 212.8881921484015 0.7210571999879144
2.036270267195379 12.226169329483692 26.8716016569553 224.69868995892134 0.7415976133354405
2.0440165439325706 12.167580284862 24.943013112021436 237.30540656271796 0.7632417638894693
2.0506776687556534 12.106879730731796 23.18902092965309 250.77516967119888 0.7860721477676172
2.056254102870931 12.044138435618134 21.595409912555592 265.18106046267513 0.8101768924759292
2.0607019862018863 11.9792947905062 20.143109273411717 280.6048355444605 0.8356557748615758
2.0640093432800724 11.912402904159679 18.822043737507922 297.1361668606748 0.8626156104635953
2.0661724509868455 11.843509885722218 17.619268849057843 314.8754420908683 0.8911769583316269
2.067167719222627 11.772624931541955 16.524597579952495 333.93205849820197 0.9214656952315197
