M[M_sun], R[km], Lambda[1], P_c[MeV/fm^3], rho_c[fm^-3]
0.24162668629717493 15.618656898711224 2160425.4255784233 3.5677272577965504 0.1711233750220791
0.2536450264339296 15.277268705181966 1723268.0411700632 3.7848391342515684 0.1738884164633226
0.26604186929572843 14.981249849541198 1382907.423449067 4.011442538757633 0.17666715723880722
0.2788179208331326 14.723489033537582 1116394.131881133 4.247792956638732 0.17945826512854446
0.29197375176001444 14.498347721632307 905814.0421885935 4.494515827676027 0.18226831101842386
0.30551088691305306 14.301157557818666 738607.835818426 4.751767551915301 0.185093016733883
0.3194282453994391 14.128073523514844 605039.175463917 5.020229163099369 0.18793897350395877
0.3337260845499467 13.975906505190377 497631.24602894596 5.300126397968425 0.19080283716674154
0.34841043507871866 13.841947860627213 410957.64999104803 5.592186004530698 0.1936908664016116
0.36347484811887404 13.723902145272318 340616.20243067615 5.8965776432322725 0.19659816806565722
0.37892884835128454 13.619936930638668 283258.01277082885 6.21416445916844 0.1995324030404691
0.39476412598529653 13.528374304281396 236369.1575155958 6.545201584357156 0.20248970885412992
0.41099009392227837 13.447796920746397 197834.85875867162 6.89039604986911 0.20547387472103582
0.42760026076166224 13.376978729463449 166046.3200881187 7.250451027981123 0.20848793793941936
0.444596260901987 13.314864904587658 139773.44548652138 7.625622332696487 0.21152739425457823
0.4619800650500739 13.260533387090074 117959.99518994591 8.016865344975662 0.21459850357726584
0.479746626339581 13.213095073833353 99788.3593049668 8.424882343030498 0.21770286688895032
0.49790590876439805 13.171955350473187 84625.91272979921 8.85011004462779 0.22083789144593433
0.5164458621788437 13.136358486607266 71923.7842547742 9.29343012523713 0.22400710257156353
0.5353663030499524 13.10580227071382 61259.70410778497 9.755723772256447 0.22721336376293824
0.5546745351985607 13.079772226256203 52290.71735670818 10.237799838326051 0.2304580135044036
0.5743599955376237 13.05780553371208 44719.06114626748 10.740126318689507 0.233737707314239
0.5944193279492166 13.039490039638645 38318.632330396315 11.263957408062195 0.23705875050004638
0.6148579218180048 13.024477868783183 32893.00927324964 11.810226182678464 0.24042269648180098
0.6356646316700778 13.012413541676802 28052.388608976828 12.379911996421182 0.24383117883560998
0.65683740544893 13.003014473649824 24364.233588879863 12.973695595468584 0.24728205355051922
0.6783705725630911 12.995969407707829 21021.27621247336 13.592920513394416 0.2507802918554664
0.7002621781558873 12.9910432188337 18167.473763500664 14.23877697154366 0.2543284414626348
0.7224991820921888 12.988000140722518 15609.569834261047 14.912455112784524 0.25792848786236805
0.7450887851760404 12.986645711649484 13629.388806923864 15.614972634131096 0.26158020559090506
0.7680115448624141 12.986758621666302 11832.513855798417 16.347620048789373 0.2652857307108313
0.7912584383518718 12.98815166577296 10286.400218641824 17.112002434814656 0.2690496377270671
0.8148368547100877 12.990672997821962 8953.40699427425 17.909575437092 0.27287436039830837
0.8387214247194674 12.994145960356645 7805.095369779116 18.741686018994063 0.2767608129845141
0.8629046640177352 12.998418178811242 6811.718746830834 19.609715933726378 0.28070980718596183
0.8873884601816405 13.003371351469887 5953.20177787811 20.515734005954705 0.28472754344234574
0.9121469086030837 13.008856439473927 5209.268328748326 21.46153515297727 0.2888170366699017
0.9371683855003288 13.014760097720668 4563.559353147666 22.44858001569261 0.2929780168686218
0.9624542714555618 13.020968731915957 4002.978935524831 23.478941891957284 0.2972146646122854
0.987977978024751 13.027353207691558 3515.211324395207 24.555021306291323 0.3015328960137652
1.0137228189581677 13.033804777907852 3090.5767836402642 25.67873253807967 0.3059341312720695
1.03968920037457 13.040268505441512 2720.311085151398 26.852094161956973 0.3104200513588611
1.0658430002407426 13.046595499694588 2397.1757887294148 28.07817689445728 0.31499918813482974
1.0921773075979084 13.052730730010435 2114.7347644650654 29.359001771260004 0.3196717499211238
1.1186785101661885 13.058555058490125 1867.6307059975277 30.6973941737871 0.32444289506747925
1.1453104840861736 13.064022041554354 1651.2636488031758 32.096683757418404 0.32932020370869935
1.1720775062909667 13.06902083268521 1461.4294957342822 33.55888687982868 0.3343018592398008
1.1989352297228126 13.073481224193158 1294.8466376579408 35.088511893561765 0.3394011947891423
1.2258838384290989 13.077348255245871 1148.54962886259 36.68753905486961 0.34461470560830154
1.2528816380274517 13.080500951373914 1019.7041233311863 38.361063738589465 0.3499570927517135
1.2799260040479759 13.082946120251316 906.2646683209765 40.11137448486428 0.3554252087008292
1.3069713229607471 13.084524483145472 806.4165282773289 41.94385321973179 0.36103308725350036
1.3340107904667626 13.085243391846726 718.2569652701508 43.86207871206359 0.3667831874122726
1.361020953116997 13.085029636733232 640.3303993164889 45.870647577380396 0.372682746461635
1.3879538026973075 13.083765775247661 571.5477214179465 47.97494164507798 0.3787419845313922
1.4148039943535602 13.081459600016641 510.5823853676483 50.179774261630875 0.3849668339015959
1.4415362042161493 13.07801435835238 456.66830527383195 52.49026206219266 0.3913637228445922
1.4681321197494344 13.073410871414437 408.81977255889257 54.9128761753516 0.39794461911540596
1.4945427525571395 13.0675421071904 366.3526050164976 57.453809583600574 0.4047185889607964
1.5207550377023544 13.06039000078292 328.68968231294804 60.11969365742119 0.4116954091439239
1.5467390423181702 13.05189613259193 295.1382322853872 62.917637622342305 0.4188856254536278
1.5724561901633256 13.042007993437077 265.33517107072805 65.85527180515898 0.426300615991694
1.5978700922839373 13.030668428090886 238.7912934317771 68.94079504302559 0.43395265979737097
1.622968335476419 13.017845725939447 215.12710054390172 72.18302668684301 0.4418550114368916
1.6477208550369804 13.003496654601388 193.9866912943388 75.59146368445056 0.4500219822616428
1.6720688969496087 12.987556624216158 175.1460883860851 79.17595600394951 0.4584674119159401
1.6960056007526796 12.969995594424748 158.2834160720886 82.94688536812053 0.46720535519331235
1.7194859097153385 12.95077657627965 143.20653958083182 86.91690670806086 0.4762569920360978
1.742466657886022 12.929820735294529 129.7104198163326 91.09750776609047 0.48563628852833307
1.764949101943651 12.907168521106593 117.60782226407261 95.50297828517915 0.4953659439659947
1.7868753273193767 12.882727235455942 106.76680194391669 100.14679815661611 0.5054627183053426
1.8082118604399522 12.856456584525205 97.03634142412476 105.04560036624855 0.5159527134399882
1.8289257716247354 12.828321407644935 88.28922282069558 110.21593696394157 0.5268584825756844
1.848997849835591 12.798330696603943 80.41937394646102 115.67557260911612 0.5382038627358652
1.8683708317320777 12.76638300496794 73.34349197877685 121.44449241374153 0.5500173292470703
1.887046912817411 12.732553850959103 66.97232011498862 127.54413754740538 0.562328732015244
1.9049690999065747 12.69672384607283 61.22604970479197 133.99716784364446 0.5751681225464338
1.9221083399614476 12.65889298465128 56.04432771046123 140.8292045270275 0.5885715320610635
1.938418615413469 12.618993003175587 51.36436529233696 148.06793686536707 0.6025772251588348
1.953911508242714 12.577134417994557 47.140363861670416 155.74175262793756 0.6172205427082899
1.96852405622187 12.533194818451975 43.318693378920905 163.8844460829149 0.632549547430499
1.9822352454769663 12.487179671620844 39.858590395051664 172.52996585103162 0.6486063358053543
1.9950193802842826 12.439087956109038 36.725864983009394 181.71733988366114 0.6654431332183998
2.006852119558702 12.388913417262852 33.88386307937477 191.4887480050786 0.6831148888624813
2.0176945332912766 12.336624923357457 31.31223657237299 201.89026053178944 0.7016808834897684
2.02752735629482 12.282229825294596 28.976208277940415 212.97169642669897 0.7212032857268935
2.036331173917487 12.225744523981371 26.85629697587348 224.78892147448724 0.741753580658204
2.0440700307637565 12.167136936287715 24.930093462352033 237.40280495790134 0.7634078371004259
2.050724118709 12.10641229973562 23.176361807082518 250.88043872963627 0.7862492754969845
2.0562912157387037 12.043649246579642 21.582739210372626 265.2951523968106 0.8103666758086944
2.0607317226358894 11.978784965010522 20.132767058292206 280.72827490866524 0.8358582441491319
2.0640304283052866 11.911873963886705 18.81209087152666 297.27009030215174 0.8628325904353394
2.066185365676105 11.842956206805004 17.61013465928864 315.02092519367693 0.8914098481648994
2.067172821105239 11.772049990298882 16.516414629862627 334.0900609410585 0.9217152474688655
