M[M_sun], R[km], Lambda[1], P_c[MeV/fm^3], rho_c[fm^-3]
0.24162668629717493 15.618656898711224 2160425.4255784233 3.5677272577965504 0.1711233750220791
0.2536418737400703 15.277350441089071 1723190.2483566492 3.784801742753421 0.17388795039633645
0.26603821868513333 14.981272947422829 1383074.0522180335 4.011363934254308 0.17666620734977373
0.27881119786104697 14.723628470949537 1116550.0442998048 4.247670479702697 0.17945684458065525
0.29196513833511745 14.49849027850779 905951.4864670124 4.494346264300715 0.18226642289088615
0.3054989183424094 14.301318109902315 738711.9735533609 4.751545144504464 0.18509061430937504
0.3194140285384419 14.128226357332027 605163.4785992516 5.0199522732242 0.1879361006646342
0.3337104593945489 13.976069997552809 497736.45201331074 5.299787735729521 0.19079942739993805
0.34839036040075105 13.842112505622202 411043.2422664087 5.591784724250542 0.19368698390451267
0.3634520063481392 13.724064284063523 340694.44506429316 5.896104729427376 0.1965937263591224
0.37890339278046586 13.620084448295493 283347.8956074984 6.213614188758577 0.19952738523689986
0.3947334870084946 13.528543447738286 236443.3173550939 6.544574528542688 0.20248421042174794
0.4109566950254433 13.44794924059905 197901.62812174083 6.889680103180675 0.20546777741860173
0.4275637103215123 13.377118438218835 166114.75743360145 7.2496394718964865 0.20848122414391515
0.4445561443456577 13.31499574131324 139832.78159170275 7.624717410160218 0.21152019048932624
0.46193610661225404 13.260622474187635 118008.66590233063 8.015851271738757 0.21459065890093537
0.47969794255655474 13.213218760194968 99836.53903003168 8.42375121131482 0.21769436235974154
0.49785262953328163 13.172049537868622 84664.7761322265 8.848866024998067 0.2208288842122864
0.5163884908740166 13.13645672347942 71955.05077606003 9.29205308527773 0.22399740812440094
0.5353055611959288 13.105885123947045 61292.93205358464 9.754204375059844 0.2272029611654665
0.5546096200022046 13.079866119241876 52315.634731159036 10.236129181240258 0.23044689378842648
0.5742894170087619 13.057892256389085 44742.81120368485 10.738309661790531 0.23372604381421772
0.5943439654081809 13.03958075181284 38340.32646898207 11.26196843265804 0.23704632334572812
0.6147780456484443 13.024529225568855 32911.658516703064 11.808053138578737 0.2404094807480306
0.6355768926616353 13.01246780379578 28303.69948121138 12.37754240035922 0.24381714828149603
0.6567470288546655 13.003042436226146 24379.003278905213 12.971140329022568 0.2472674486953501
0.6782762124090291 12.995988736207256 21035.220333593115 13.590143290640695 0.2507648290232362
0.7001614459150931 12.99107309391494 18178.783778433073 14.235762901113313 0.25431208998344845
0.7223924843852251 12.98800955645316 15735.360174590818 14.909188346495249 0.25791121523757976
0.7449780236535234 12.986651721418475 13639.455465595069 15.611468179704692 0.26156229314447377
0.7678949723653034 12.986765330718562 11840.017828083232 16.34383044784189 0.2652668405005728
0.7911363676006323 12.98812821385458 10293.115378739161 17.10790866766279 0.2690297311236734
0.8147078531901342 12.99066696516661 8960.224939726093 17.905157223051674 0.27285339628860444
0.838586009701482 12.994127087988144 7810.012116264658 18.73696295474769 0.2767391129480811
0.8627638501290946 12.998394066511572 6817.271079428489 19.60462660701136 0.2806869745866619
0.8872363321339185 13.003334690487021 5957.618653822873 20.510253921382464 0.28470352886204964
0.9119950416387339 13.008827335527766 5213.459331472103 21.455638137748803 0.2887917873583923
0.9370115131728515 13.01471223799442 4567.309119121206 22.44229063483821 0.292951894361183
0.9622867616325778 13.020917291281561 4006.478067766336 23.4721812170463 0.29718720750267963
0.9878088822193419 13.027310129999005 3518.1377014499667 24.547757514748 0.30150404041824735
1.0135474387343133 13.033767378061315 3093.5888966604875 25.670993747332687 0.3059042657881699
1.0395084651636424 13.04022538273095 2722.743296134566 26.84378576237069 0.31038866372131385
1.0656598379563038 13.046561314997902 2399.310479770115 28.0692599939001 0.3149662006423032
1.0919853274148286 13.052676054504024 2116.700893231324 29.349507973123817 0.3196375780770553
1.1184810054533483 13.058515449816106 1869.5038216957564 30.687210130246125 0.3244069701939789
1.1451078613279877 13.063969712530525 1652.8922520992162 32.085842707406705 0.32928295492865967
1.1718688898096186 13.068990157527434 1462.9007064120105 33.54726165755852 0.33426268104213985
1.1987213541338329 13.073449050989087 1296.08332602578 35.07604762963804 0.33935997884741614
1.2256647609630391 13.077312595515687 1149.637088485973 36.674271919983155 0.3445719078848662
1.2526573506022958 13.080485844346969 1020.6983510433672 38.346896258446314 0.3499123621438586
1.2796965597563625 13.082930628983913 907.1891057160805 40.09623338988214 0.3553783672112675
1.3067384756104095 13.084518836886671 807.214721324089 41.92773109494354 0.36098434762777426
1.3337721779420728 13.085228551579538 718.9222294122183 43.84479479979347 0.36673181068642463
1.3607782046752206 13.085040491744335 640.9470871449207 45.852238093527504 0.37262921418333017
1.3877083111588229 13.083781223186278 572.1335388646231 47.9553279565578 0.37868615764242736
1.4145622344459137 13.081499846731862 511.1116672145069 50.15874129585635 0.384907897213615
1.441284262467519 13.07805153246238 457.1136541822723 52.46784320873434 0.3913021690726141
1.4678763096929408 13.073463191640935 409.25137364501427 54.88897216503829 0.397880273818685
1.494284168817304 13.067603626023995 366.739753364784 57.428313106279376 0.4046512642133445
1.5204947153333321 13.060465685788333 329.0284975374882 60.09248864202134 0.41162490242707256
1.5464776711737154 13.051988748958827 295.46720192132784 62.888598445102396 0.4188117184388353
1.5721924874000976 13.042119275151695 265.6185679139562 65.82426241801625 0.42622307320181996
1.5976155225141644 13.030799869659031 239.06419628828542 68.90766801319704 0.4338712271332647
1.6226961757098541 13.017962213700827 215.364222455356 72.1476221375191 0.4417694145545573
1.6474541650071717 13.003661847914081 194.21298080148196 75.55360812527718 0.4499319247834823
1.6718040087167012 12.987739493343094 175.33747439611392 79.1356587085384 0.45837339878677696
1.6957420530684508 12.970201978337482 158.46155468125409 82.9037531703308 0.4671062375284129
1.7192056528406514 12.950970250992807 143.37418256156687 86.87071757337722 0.47615239637152595
1.7422096534671405 12.930081000270693 129.86378527095172 91.04824246868436 0.4855266913755086
1.764689601426608 12.90744574767742 117.75048128971505 95.45016223152096 0.49525005375101694
1.7866186181240755 12.883024690608012 106.8836215600791 100.09038535816413 0.5053409819336833
1.8079593375975975 12.856781854819914 97.14619755410966 104.98529829238774 0.5158246618597467
1.828671919536182 12.828665091502241 88.38638629120766 110.15139074181883 0.5267234752132952
1.8487545021414193 12.798713589823487 80.51130507518475 115.60624193159643 0.5380606494802871
1.8681434444465066 12.766826104937435 73.42738365801499 121.37021534499384 0.549866128354609
1.8868172207163358 12.732993931522294 67.05132870213083 127.46461025550236 0.5621692985573798
1.9047436652978182 12.697195298976142 61.296504556980096 133.91200037591682 0.5749999755208755
1.921889799907977 12.659400523214678 56.10657490912049 140.73772827654992 0.5883933015384731
1.938207940296589 12.619530006144611 51.42395143949244 147.96960402655097 0.6023880770510083
1.9537109664939687 12.577715165103896 47.194631691506515 155.63628540988591 0.6170206717726646
1.9683326947252655 12.533802142123958 43.36589330025495 163.77118545079995 0.6323379454386202
1.9820556248579368 12.487827661652847 39.90124223125176 172.4079089450524 0.6483809710738897
1.9948506991799697 12.439769790192756 36.76710100546535 181.5860243309815 0.6652039401184006
2.0066879366606885 12.389618143935627 33.92578087739355 191.34732105868937 0.6828606439447962
2.017548499137307 12.337382749810777 31.346812273872253 201.73778151219017 0.7014102482707948
2.0273918835180216 12.283022554114485 29.008556601030765 212.80751104172717 0.7209160532187849
2.036210944097729 12.226578988934897 26.88559921931086 224.61151004041992 0.7414469207708513
2.0439641263400006 12.168010623637038 24.956439450663577 237.21130316844776 0.7630813089577536
2.05063312989022 12.107330966609164 23.201261557055357 250.6733206480054 0.7859005505435518
2.056209632453331 12.04458875252657 21.60551738682294 265.07078711142583 0.8099933912127036
2.0606742942431944 11.9797855200438 20.154195109283442 280.48557637438427 0.835460162065322
2.0639948812278126 11.912929804240592 18.83242371530808 297.0067803026296 0.8624059810559342
2.0661604547073513 11.844042203917288 17.62824541254219 314.7348893405381 0.8909519610229465
2.067164719285326 11.77317906882312 16.531950202984422 333.7794126792783 0.9212246033537917
