M[M_sun], R[km], Lambda[1], P_c[MeV/fm^3], rho_c[fm^-3]
0.24162668629717493 15.618656898711224 2160425.4255784233 3.5677272577965504 0.1711233750220791
0.2536446454463653 15.277255422441458 1723227.2357097578 3.7848306699758645 0.17388831096020926
0.26604042461887883 14.981272553581997 1382985.7117765092 4.011424745039067 0.17666694221221949
0.2788170220084477 14.723462499985027 1116507.5554578546 4.247765231362787 0.17945794355712458
0.2919718360467076 14.498365181198698 888684.5675745856 4.494477443180804 0.18226788359816096
0.30550762369573925 14.301212971620119 738608.4545339213 4.75171720471994 0.18509247288808403
0.31942513933761973 14.128086189738145 605094.919776134 5.020166482198551 0.18793832316542017
0.33372197801866565 13.97597921291093 497669.13369408273 5.300049732971907 0.19080206527743682
0.34840586406384705 13.84198661395253 410981.37635739375 5.5920951638863325 0.19368998749338795
0.36346923584152274 13.723948796105987 340645.0154578828 5.896470585874341 0.19659716256029577
0.3789236328980273 13.619986409029076 283276.0801956413 6.2140398893548525 0.199531267113761
0.3947563086245073 13.528426906953015 236393.83814603815 6.545059631285292 0.20248846411745888
0.41098255702900693 13.44783006038296 197844.7138788491 6.890233972878577 0.20547249440537146
0.4275915480384785 13.377016686652501 166060.24500582568 7.25026730592855 0.20848641805396234
0.44458814262990504 13.31490234086511 139794.3243230349 7.625417473243347 0.21152576344160703
0.46196975586287253 13.260540453458876 117968.86062877909 8.016635774537493 0.21459672766432686
0.47973575129708446 13.213121726016555 99803.63023819611 8.424626271174366 0.2177009415865741
0.4978940296865389 13.171950962093671 84631.30359572744 8.849828415425637 0.22083585233017983
0.5164329277244598 13.136376400486332 71930.68301043758 9.293118380597024 0.22400490786986219
0.535352688171433 13.105820333125196 61267.46431328554 9.755379798136941 0.22721100873404002
0.5546606523162677 13.07980140096261 52299.45206572508 10.237422393827803 0.23045550607977566
0.5743442344408046 13.057840792126063 44323.15114712391 10.739715044877743 0.23373506680897083
0.5944017277173983 13.039509492178867 38324.02230392147 11.263507120938957 0.23705593709795186
0.6148404270757509 13.024485138034693 32897.87980594665 11.809734221737 0.24041970453845815
0.6356464207777509 13.01241940172053 28287.77344920945 12.379375535154228 0.24382800240864133
0.656817118380822 13.003005764617061 24367.308180278997 12.97311709741927 0.24727874709289363
0.6783498968031757 12.995970684811958 21024.73826090652 13.59229176284142 0.25077679114083967
0.7002389098427928 12.991050448105678 18168.81801323021 14.238094596677895 0.25432473954568474
0.7224750738063452 12.987995018818722 15726.409565229931 14.911715525128821 0.25792457738364266
0.7450636805953742 12.986639266255192 13631.867556670932 15.614179231512958 0.26157615024300584
0.7679851220616511 12.986758333632386 11834.32847576521 16.346762085597405 0.2652814539795039
0.7912322477244828 12.988142938810274 10218.529518321291 17.111075604388976 0.2690451308645581
0.8148060788757061 12.990676543008012 8954.764043638144 17.9085751472166 0.2728696140943737
0.8386919663612451 12.994138151302804 7806.360898267534 18.740616706626078 0.2767559000474603
0.8628711921571646 12.998416959460384 6812.942724193493 19.608563693441326 0.2807046378104827
0.887355299063708 13.003356643443754 5954.193343244275 20.51449329110191 0.2847221064374849
0.9121113846167591 13.008858804354382 5210.123205729596 21.460200037044878 0.2888113200901114
0.9371334784394881 13.014742975387906 4564.452585198668 22.447156060731917 0.2929721025703921
0.9624183127229738 13.02095833568566 4003.8005930867294 23.477411225936777 0.2972084481227709
0.9879393517741147 13.02734001586931 3515.8382674575746 24.55337672325826 0.3015263628660951
1.0136838588003634 13.033801566290906 3091.4024351862768 25.676980404583055 0.3059273694514642
1.039648555293672 13.040261180111482 2720.874842424141 26.85021305478926 0.3104129448747116
1.0658012126295449 13.046581263837787 2397.7301250037476 28.076158006674497 0.31499171939104154
1.0921342570952053 13.052715051186835 2115.2646441765464 29.356852258902993 0.31966401299644587
1.1186339040136073 13.05854883496681 1868.006889080804 30.695088370085056 0.32443476119550796
1.1452660711365248 13.064008191653537 1651.7447831508528 32.09422918887394 0.3293117700529459
1.1720292356179414 13.069012298740681 1461.7046694182911 33.55625475029742 0.3342929886918966
1.1988851754192296 13.073475282009774 1295.0991670548847 35.08568977775002 0.3393918628172302
1.2258343966516452 13.077335969497923 1148.796013078868 36.68453514333501 0.3446050154546864
1.2528308163425974 13.080502501722664 1019.9333620606018 38.35786583881191 0.34994702287188556
1.2798746825225538 13.08294101614819 906.5139479195873 40.107946243533796 0.35541460286745413
1.3069182454253905 13.084520277251823 806.6195098529348 41.94020283816671 0.36102205159699874
1.3339567961540233 13.085241033036056 718.4151909881996 43.858165256686675 0.36677155459900235
1.3609662222521954 13.085029595601966 640.4769283903402 45.86647924932266 0.3726706255298677
1.3878980990735057 13.083771148639828 571.6599362701932 47.97050063727953 0.3787293439896093
1.4147480105810033 13.081461460882508 510.71974689504674 50.175011868604244 0.3849534891515088
1.4414789521683693 13.078024480500947 456.7722590553959 52.485185845234355 0.3913497854547188
1.4680756291815307 13.073421639077878 408.9222282175499 54.9074636537093 0.39793004958056566
1.4944838581914632 13.067555234392644 366.4323275300068 57.4480364553628 0.40470334472153463
1.5206964445852267 13.060405832731357 328.74896529865043 60.1135336364455 0.41167944433565795
1.5466801581776193 13.051916802304255 295.21359000062984 62.911062258909425 0.4188688906309266
1.5723963764791171 13.042034510615132 265.39676243443046 65.84825028854127 0.4262830578250273
1.5978101026850475 13.030695864470237 238.85212934616567 68.93329398393618 0.433934220739344
1.6229081430275036 13.017875609513434 215.17772039382297 72.17500987748357 0.4418356293546299
1.647660362427676 13.003533941396567 194.04533008354957 75.58289183359157 0.4500015900315877
1.6720095998265996 12.987597073754225 175.19055203312345 79.166831212765 0.45844612388250106
1.6959449607201724 12.970042812062745 158.3178908449121 82.93711859270465 0.4671829111718521
1.7194264157498993 12.950827502701799 143.242558466176 86.9064476618682 0.47623330744242004
1.742405000382994 12.929872010923736 129.74897430124318 91.08635209598786 0.4856114712686093
1.7648900016151166 12.90723129480453 117.64823540196862 95.49101850271302 0.49533970153277435
1.7868162789296453 12.882790682743847 106.79876068225967 100.13402384738579 0.5054351519002213
1.808154749956978 12.856530964723754 97.06110586406184 105.03194527649141 0.5159237168282668
1.8288638011342355 12.828390370343422 88.30773825645603 110.20132882610918 0.5268279408453549
1.8489430286688968 12.798418450121876 80.44433162142286 115.65987283326629 0.5381714324165356
1.868318281909426 12.766476403362143 73.36890158282999 121.42767243095722 0.5499830899259575
1.8869969169329783 12.732651360456956 66.99199121593769 127.52616686718001 0.5622927651215791
1.9049181384261156 12.69683003539075 61.23901499916221 133.97788149559025 0.575130045307017
1.922058471183781 12.659008227332015 56.06016289742446 140.80848939575841 0.588531171107785
1.9383708734745495 12.619115142103182 51.37758645126669 148.0456688721598 0.602534391565999
1.9538661526170769 12.577267123374899 47.1517685849751 155.71786885599406 0.6171752805696576
1.9684812303187105 12.533328560024193 43.328403902920414 163.85880176735662 0.632501643635917
1.9821949827466185 12.48732230933808 39.870039322052975 172.50232481526362 0.648555299655017
1.9949817207321516 12.439242165239385 36.73461768681777 181.68760190835886 0.6653889650840462
2.006816461366813 12.389077029296342 33.89509473189676 191.45671993317214 0.683057311613496
2.017661696881098 12.336795953038262 31.31990244810326 201.85572928578588 0.7016195939343387
2.0274961202222297 12.28240714284598 28.983490463770842 212.9345138048026 0.7211382369544515
2.0363040212191947 12.225934576989689 26.863332246682912 224.74874323331062 0.7416841316118219
2.044046886057215 12.167333133960188 24.936568547927564 237.35943531944957 0.7633338878828628
2.050703824240934 12.106620095285908 23.1816572547208 250.83356428589087 0.7861704036621907
2.0562745250389276 12.043866692247352 21.588426414080587 265.2443742510271 0.8102822502982004
2.0607186407692515 11.979014850053034 20.1373854292901 280.67330917675594 0.8357680875556386
2.064021813966851 11.912111061254548 18.817174965956877 297.2104559500741 0.8627359720996239
2.066180219716654 11.843204971022972 17.61500528407944 314.9561432334225 0.8913061449881631
2.067170215058605 11.772303061848158 16.520471709062956 334.019704002357 0.9216041243042591
