M[M_sun], R[km], Lambda[1], P_c[MeV/fm^3], rho_c[fm^-3]
0.24162668629717493 15.618656898711224 2160425.4255784233 3.5677272577965504 0.1711233750220791
0.2536406354467168 15.277410234046666 1723232.1823426425 3.7847743177446858 0.17388760855683283
0.26603436567728317 14.98140796470944 1383084.3392928084 4.011306282031052 0.1766655106566797
0.27881063906533554 14.723557140354666 1094162.3435485198 4.247580650437188 0.17945580269654515
0.2919585756814511 14.498574887086779 906061.2402763806 4.494221901463492 0.18226503808183056
0.3054902289070987 14.301425952200288 738812.8033870889 4.751382026167044 0.18508885232001487
0.3194035464422778 14.12835411784182 605266.446968112 5.0197491985125 0.18793399368612068
0.33369918084415306 13.976130324711153 497822.21518026694 5.29953935915398 0.19079692665995363
0.34837456034619746 13.84225613628413 411137.67430051055 5.591490426393446 0.19368413649178673
0.3634342412263737 13.724237572816842 340767.2679604168 5.895757899571188 0.19659046885971604
0.3788837764189054 13.620213447032732 283413.5677871644 6.213210630832384 0.19952370527452834
0.3947114455389844 13.528662066493238 236509.39696288813 6.544114662256447 0.20248017801566653
0.4109323505281617 13.448085777686517 197958.24231887114 6.88915505230352 0.20546330586500283
0.42753545737715093 13.377244515331471 166158.92615064752 7.24904431070959 0.2084763005279427
0.4445263133734537 13.31509492315818 139866.64785219482 7.624053784283877 0.2115149076006405
0.4619026699027968 13.260747265476072 118047.1096985512 8.015107607899202 0.21458490605991
0.47966191011974807 13.21332926858795 99861.41273315444 8.422921712099297 0.21768812568525947
0.4978140232056228 13.172126519343829 84694.40101483747 8.847953749436972 0.22082227894743875
0.5163478969393395 13.13652403836425 71982.35843382188 9.291043272487311 0.2239902989794019
0.535259999742112 13.105961805842606 61313.96585794191 9.753090180135034 0.22719533279723353
0.5545606149130737 13.079928368823596 52338.135597121895 10.234903343434762 0.23043873018684274
0.5742337437681813 13.057979233981277 44759.70185538543 10.736977507634682 0.23371749097188746
0.5942883513457556 13.039597620586592 38354.970941487445 11.260509932209123 0.23703721060852984
0.6147187647602765 13.02456878976815 32926.745608972924 11.806459678150478 0.24039978984999677
0.6355131239728276 13.0124924898918 28319.089771539057 12.375804828983195 0.24380685999244564
0.6566804410920926 13.003069244120452 24389.581370574182 12.969266625740568 0.2472567393757384
0.6782057894840612 12.996018574442017 21045.263046109576 13.588106853769911 0.25075349068833375
0.7000873631466689 12.991074272156553 18188.000889705607 14.233552814770897 0.2543001001571775
0.7223100455166346 12.988047064702137 15742.486530442982 14.906792993564185 0.2578985501036981
0.7448957512026609 12.986654514808516 13646.058173628384 15.608898563730962 0.2615491589721097
0.7678090682825499 12.986757610692496 11846.56666044703 16.34105177838143 0.2652529895302268
0.7910461021492495 12.988123158194194 10298.563768947159 17.104907003280278 0.2690151350462301
0.8146141150703655 12.990649124358244 8964.927408852887 17.901917698183837 0.2728380249747437
0.8384892670982956 12.994110666396523 7814.427376211701 18.73349993633561 0.27672320217029145
0.8626628664238566 12.998368960223463 6821.267778657045 19.600895077951694 0.2806702335691234
0.8871305141384115 13.003312502435096 5961.435131441816 20.506235927397128 0.28468592138940607
0.9118834427445505 13.008799315398102 5216.3616227683615 21.451314495324112 0.2887732747736004
0.9368964063214507 13.014690310087362 4570.022328809273 22.43767935197152 0.2929327417174211
0.9621653460148962 13.020891700039918 4008.576915703988 23.467224440111437 0.29716707655874525
0.9876846650594053 13.027279041844157 3520.426364025052 24.54243192004576 0.3014828843586739
1.01342495160472 13.033747115290598 3095.5104495731184 25.665319945885415 0.30588236949567243
1.0393761550317469 13.0401902595039 2724.5303239082705 26.837694409512473 0.3103656516870827
1.0655224116134128 13.046524210215361 2401.0382446328626 28.062722585536573 0.31494201592608345
1.0918441893366413 13.052651538437129 2118.1191019126813 29.342547674334657 0.31961252527505957
1.118334822924947 13.058490037848317 1870.7511975930877 30.679743865925165 0.32438063246278487
1.1449604593887541 13.063948473234847 1653.9105097367446 32.07789484059339 0.32925564684112246
1.171715993445145 13.068957224561418 1463.867667152472 33.53873898855283 0.33423395876886675
1.198564991771118 13.073422912924093 1297.0217608188439 35.06690994728662 0.3393297630091113
1.2255040688474106 13.077292592335091 1150.4268836023552 36.66454573476338 0.3445405327169283
1.2524936698955011 13.080465399335688 1021.4338188631228 38.336469700853826 0.3498793330951343
1.2795295316561495 13.082913737349132 907.8728154980336 40.08513363294574 0.35534402827149547
1.306567486767189 13.084512410379551 807.8184096776633 41.915912271442615 0.3609486175337871
1.3335986226620877 13.085232555426877 719.4524987917088 43.83212444549516 0.3666941478408253
1.3606015239132485 13.08503860407026 641.4543630064813 45.838742749604116 0.37258997155640483
1.3875279065166404 13.083798591751117 572.5524199522484 47.94094999968221 0.3786452333358539
1.41437858185852 13.081518660565298 511.49844684769727 50.14332312291417 0.3848646937939132
1.4411055219166098 13.078099993880988 457.4784973661457 52.451409288211494 0.39125704768411634
1.467688207737446 13.073499808690514 409.5643394852631 54.87144975479945 0.39783310664165883
1.4940951117913646 13.067648631012036 367.04694788094196 57.40962357323226 0.4046019135490728
1.5203035140366257 13.060523094633627 329.2832436964011 60.0725469348074 0.41157321988679824
1.5462848885943221 13.052057745667588 295.703900914569 62.867312514185095 0.4187575440523442
1.571998892700924 13.042198710322433 265.8345319349322 65.80153257730966 0.4261662344370398
1.5974211019452904 13.030894286233204 239.2568060926821 68.88338623666492 0.4338115378172446
1.6225073696210273 13.018099068362504 215.52471476513634 72.12167128336961 0.44170667368504973
1.6472590724639078 13.003782477111749 194.3710973858577 75.52586107946189 0.44986591521904595
1.6716090439650961 12.987875321660919 175.48140767639603 79.10612225893355 0.4583044905877678
1.695547670267787 12.97035427869152 158.59729516102666 82.87213926100429 0.46703358885685525
1.7190200712348744 12.95116386520468 143.48607725753664 86.83686353187638 0.4760757336240319
1.742018803949389 12.93026646539327 129.97495372722608 91.0121342009761 0.4854463637708333
1.7645047199850712 12.907653539190843 117.84940885589536 95.41145204469615 0.49516511495755855
1.7864307868770244 12.883245642050362 106.97661923984319 100.04903955082261 0.5052517594751773
1.8077734227731377 12.857021528787508 97.2243644013523 104.94110255222269 0.5157308121128683
1.828499291266235 12.828948854018776 88.45932972475178 110.10392440351553 0.5266239307817077
1.8485749748196507 12.798995480943283 80.57999678302708 115.55543056887404 0.5379556907385559
1.8679681695456392 12.767127069689595 73.48708340532876 121.31577963155641 0.5497553171905138
1.8866469871843348 12.733320040869668 67.10664191514905 127.4062447023274 0.5620521593578646
1.9045777305154965 12.697541337784255 61.34557228508342 133.84958513817028 0.5748767484618045
1.921730434828008 12.659771019138686 56.155226575681624 140.67069068980433 0.5882626868263869
1.9380610230866133 12.619954400875539 51.46669139166708 147.8975428257442 0.6022494637459882
1.9535556904600282 12.578102885577255 47.23226063854321 155.55899709107038 0.6168742026718393
1.9681920555659973 12.534246214670812 43.40156286070384 163.68795907002053 0.6321821095310757
1.98192300145577 12.48830118701558 39.935262120333576 172.31846641161403 0.64821582521534
1.9947235806271304 12.440267294548244 36.79631838112069 181.48979874518045 0.6650286638796207
2.006571848763633 12.390143717259393 33.953800634925564 191.2436878502822 0.6826743412831492
2.0174405735591487 12.337937606585772 31.372566299678954 201.62605172682493 0.7012119389230059
2.027293870734248 12.283606073063424 29.032839368426327 212.68720544030467 0.7207055857667518
2.036122534250991 12.227193771370361 26.90816562536512 224.4815157002728 0.7412222224591807
2.0438861141103124 12.168657126567972 24.975923397686277 237.07098707196215 0.7628420571235894
2.0505670591354783 12.108010446656754 23.21919849332637 250.52136513790958 0.7856443879013868
2.0561532901772983 12.04529112477513 21.62231490228541 264.90636506519695 0.8097197833750592
2.060628891381141 11.98052399674615 20.1690035684781 280.3075200843722 0.8351677206914692
2.063964099761101 11.91369569016073 18.846222749572224 296.813865418549 0.8620934243770197
2.0661420789355285 11.84483942427063 17.64109560249455 314.52532911159534 0.890616496313734
2.0671592085468813 11.77401044432011 16.544451261264513 333.5518256687036 0.9208651478501111
