M[M_sun], R[km], Lambda[1], P_c[MeV/fm^3], rho_c[fm^-3]
0.24162668629717493 15.618656898711224 2160425.4255784233 3.5677272577965504 0.1711233750220791
0.25364146620312417 15.277384086446697 1723318.5422263562 3.7847938258940164 0.1738878517165032
0.2660371966693371 14.981325203278725 1383077.7054532876 4.011347291553523 0.1766660062325566
0.27881072620203196 14.723602821894259 1116520.9865158251 4.2476445482332075 0.17945654381468706
0.29196366481692554 14.498508290858346 906041.2323517373 4.49431036372643 0.1822660231296594
0.30549592459811875 14.301353384191396 738772.9785407642 4.7514980559805995 0.1850901056634475
0.31941114007895843 14.128258344578372 605182.253876353 5.019893650017767 0.187935492426241
0.33370748461721844 13.97605515952333 497763.16937849944 5.299716034626592 0.1907987054888052
0.3483860938085742 13.842105822902575 411082.3603560467 5.591699766368182 0.19368616191362972
0.36344594029601285 13.72411730500832 340710.71223017847 5.896004606278719 0.19659278598132188
0.37889821983780236 13.620107519798026 283369.6478639611 6.2134976889162 0.19952632289861233
0.3947272979858537 13.528577128040496 236459.74353067175 6.544441773099504 0.20248304633585504
0.4109497296967988 13.448005737734505 197921.2607597987 6.889528529583106 0.20546648655423944
0.4275554336105245 13.377155538824686 166132.45083988903 7.249467658047055 0.20847980277197092
0.44454790500932717 13.315039786886123 139854.65428493818 7.624525831059957 0.21151866539650319
0.4619258543348121 13.260664333775692 118020.39615598647 8.015636586168146 0.21458899813448087
0.4796878544186779 13.213247611884224 99841.12744280433 8.423511745492219 0.21769256191152267
0.497841311535012 13.172073378063867 84673.76277236588 8.8486026619737 0.22082697735146364
0.5163766723836738 13.136476624204796 71963.17888166672 9.291761563518214 0.22399535579303967
0.5352923773234424 13.105903618065529 61299.1675391258 9.753882718338998 0.22720075893329278
0.5545948900760576 13.079872076631348 52320.081089368 10.235775293264387 0.23044453703255932
0.5742730076386915 13.057902574105334 44749.54790502859 10.737925080253147 0.23372357468161925
0.594327621041634 13.039574140026584 38345.88364774479 11.261547374735203 0.23704369256820665
0.6147611281006412 13.024542690063035 32915.74742311326 11.80759311733594 0.2404066830513459
0.6355591020136846 13.012456922633682 28306.397084993605 12.377040773728543 0.24381417811299363
0.6567279444343544 13.003041200097362 24381.989689049078 12.970599400521587 0.24726435696985669
0.6782563965412132 12.995995356626933 21038.42742501759 13.589555380001736 0.25076155569430914
0.7001394149962082 12.991067878521209 18182.027516097845 14.235124856670495 0.2543086285612064
0.7223691869482535 12.988007074560668 15737.020420819556 14.908496814108055 0.2579075588451736
0.7449535771541649 12.986645015583838 13641.273292138294 15.610726336143122 0.26155850133227126
0.7678695296183211 12.986755680094562 11841.72076685786 16.343028248465135 0.26526284173787823
0.7911093122602026 12.988128722492167 10294.100315344325 17.107042087202753 0.269025517236345
0.8146815951892391 12.990654905128347 8961.342486959475 17.904221969403398 0.2728489585769172
0.8385587873691039 12.994108514601136 7811.51291165694 18.735963175811445 0.27673451948116856
0.8627363182393085 12.99838356567817 6818.571707434153 19.603549305300383 0.2806821414133034
0.8872068127809873 13.003328343665968 5958.945169491994 20.509093912938898 0.28469844552518775
0.9119619522105283 13.008818662185442 5214.332300945723 21.454389883674605 0.28878644269592474
0.9369780754653873 13.01470602718765 4568.048159272152 22.440959334369364 0.29294636489696296
0.9622529885625918 13.020909652458991 4006.9653418620933 23.470750166199718 0.297181395579985
0.9877726041759309 13.027309325766362 3518.670365750543 24.546219979146596 0.3014979325192054
1.013512230363125 13.033761151885821 3094.140530060594 25.66935567785297 0.3058979441625733
1.0394702319317546 13.040215592752883 2723.27869114069 26.842027136970643 0.3103820199512274
1.0656209627012674 13.046551226794985 2399.815369401938 28.06737258234482 0.3149592182862508
1.0919452398367242 13.052665456693706 2117.2432529535176 29.347498463815263 0.3196303450773895
1.1184389212889059 13.058506586300703 1869.8853173137486 30.685054536389437 0.32439936619697046
1.1450655422421279 13.063961912021398 1653.1062643134055 32.083548063364695 0.32927507075774465
1.171824770982071 13.068981150485017 1463.2040644453605 33.54480105294768 0.3342543885509024
1.1986761237106192 13.073436564000028 1296.335872444651 35.07340945370792 0.33935125511482633
1.2256185663813204 13.077308522631498 1149.869660289312 36.671463827253824 0.3445628494124047
1.2526105546832504 13.080473439006232 1020.9161121988196 38.34388594736318 0.34990282613827306
1.2796481993805486 13.082921320672375 907.3859998313188 40.093028706353174 0.35536845299104447
1.3066889218896491 13.084512667798853 807.3786466705228 41.92431879502882 0.3609740317281709
1.3337229263547206 13.085231977679344 719.1707426774243 43.84113663478733 0.36672093672816275
1.3607274525887352 13.085037276263948 641.1212523748482 45.84834172702455 0.37261788407882096
1.387655404530368 13.083785633994738 572.2406391814984 47.95117674986889 0.37867434196815203
1.4145091615922507 13.081507688513282 511.20625532030334 50.15428974079019 0.3848954234657481
1.441230390206171 13.078063077862371 457.2153811842392 52.46309837053107 0.3912891415246452
1.4678237205917513 13.0734702388994 409.3444268923324 54.883913039153924 0.3978666555616683
1.4942296446408043 13.067614197857344 366.829844635051 57.42291698702409 0.4046370154855103
1.5204401748177385 13.060482780481518 329.1104834745648 60.086730970275795 0.41160998037959273
1.5464219217081638 13.052008866697706 295.5308538581803 62.88245264084129 0.41879607687837767
1.5721368118328827 13.04214033842312 265.6772186086696 65.81769969594923 0.4262066623074059
1.5975595110014242 13.030827839281478 239.1200750364654 68.90065717962592 0.433853993144638
1.6226474858877444 13.018025677497919 215.41214455932945 72.14012936628471 0.44175129942896035
1.6473970141208212 13.00369968647582 194.25492319819242 75.54559671039843 0.4499128658173428
1.6717477841914181 12.987780737208094 175.37446599064353 79.12713061069996 0.4583535028320877
1.6956852663379802 12.970248510828533 158.49667235123073 82.89462520829505 0.4670852614982397
1.719157795913406 12.951047827957535 143.40604303169397 86.8609427723667 0.47613026125653074
1.7421545148050734 12.930135408710575 129.89582986166877 91.03781675950233 0.4855034980101442
1.7646395568708917 12.907509862225483 117.77509303193358 95.43898520984273 0.4952255288697472
1.7865650922274299 12.883086371077505 106.91205570911181 100.07844729277392 0.5053152201064894
1.8079058022440817 12.856851877812993 97.16838224572888 104.97253729575421 0.5157975638566473
1.828619367253735 12.828739376174145 88.40620848792584 110.13768533481648 0.5266947328034424
1.8487023124553832 12.798794571230745 80.53429774620481 115.59157062254152 0.5380303436184591
1.8680924242282544 12.766913116162977 73.44496258292605 121.35449747043253 0.5498341325219606
1.8867682203025558 12.733087750754104 67.06659412557376 127.44775759612776 0.5621354754044847
1.9046954901339275 12.697295595452141 61.308608738706134 133.89397832469973 0.5749643943959757
1.9218429961233436 12.65950776292987 56.12192167727618 140.71837145565425 0.5883555870903414
1.9381641928043434 12.619643419872567 51.43525680633548 147.9487965559126 0.6023480528459991
1.953668468658797 12.577840415422507 47.205753702478376 155.61396852228003 0.6169783790366995
1.9682920965016735 12.533930487088108 43.375888186716885 163.747153830526 0.6322929478150292
1.982017040685698 12.487963817671712 39.913045355203074 172.3820822841318 0.6483332849683285
1.9948137018227263 12.439914090518759 36.77540668998236 181.5582389126454 0.6651533285936347
2.006654020302723 12.38976909785472 33.93224971105267 191.3173965098051 0.6828068482243759
2.017517091139081 12.337543654524314 31.355492631058308 201.70551886408094 0.7013529852528487
2.0273644992089905 12.283191953948096 29.015446274654696 212.77277189412072 0.7208552791584246
2.036184641793534 12.226757072397787 26.89212619127374 224.57397297517608 0.7413820370599465
2.043941672324481 12.168196065495794 24.962814493068006 237.17078537123186 0.7630122223914723
2.05061346655997 12.107525606684225 23.20603047130137 250.62944156545902 0.7858265803287582
2.05619323435964 12.044792262325332 21.610626391360363 265.0233078667475 0.8099143829910729
2.0606603430457997 11.979998263098643 20.15800800213586 280.4342180212009 0.8353759052022814
2.0639858144074865 11.913151003364788 18.835942500684176 296.9510726342861 0.8623157246514557
2.0661546506249353 11.84427246903878 17.631974936544417 314.6743746083604 0.8908550888390618
2.0671627868980478 11.773416161246468 16.535335600005766 333.71369190291216 0.9211208026372599
