M[M_sun], R[km], Lambda[1], P_c[MeV/fm^3], rho_c[fm^-3]
0.24162668629717493 15.618656898711224 2160425.4255784233 3.5677272577965504 0.1711233750220791
0.2536434247562974 15.27729258545437 1723220.4546314229 3.7848082736394746 0.1738880318006805
0.2660379438708562 14.98130586030356 1383114.96470212 4.011377663420317 0.17666637325864257
0.2788122127605309 14.723597211571748 1116481.3054470455 4.247691871566016 0.1794570926940329
0.2919663813176238 14.498473131432963 905936.8205367171 4.494375880136275 0.18226675267008857
0.3055009334470178 14.30129041686674 738667.9875002218 4.751583989832493 0.18509103391305518
0.31941668315532806 14.128183692060803 605139.3232549516 5.0200006341211365 0.18793660242760551
0.3337145643249197 13.975967058109003 497724.27725255635 5.299846885315481 0.19080002293812176
0.34839361267788693 13.842087612526996 411029.9264374464 5.591854810137219 0.19368766200474624
0.36345507336404603 13.724057660646768 340693.6357651216 5.896187326082706 0.19659450212438856
0.3789092293929649 13.620038253419436 283327.84918968135 6.21371029561277 0.1995282616156899
0.3947384187784663 13.528514017305007 236424.96890262474 6.544684045742376 0.20248517073963873
0.4109621827909207 13.447951510103476 197892.4542306926 6.8898051448010476 0.2054688423255125
0.4275695065069685 13.377101502617958 166097.8651300247 7.249781211181237 0.20848239671669325
0.44456312416781846 13.31497771814201 139827.5024269983 7.624875455292491 0.2115214486302018
0.46194304233423616 13.26062069026018 117997.91357763311 8.016028379204199 0.2145920289703658
0.4797060476046726 13.213208936862058 99822.00852599602 8.423948762010403 0.21769584766480152
0.4978618362541664 13.172029350189629 84656.2005769419 8.849083290471246 0.22083045730714262
0.5163998390247345 13.13643603316275 71950.80872613852 9.29229358129617 0.2239991012313639
0.5353157046079827 13.105874781237619 61287.01567469666 9.754469732054964 0.22720477793991675
0.5546211800330425 13.079849799991111 52311.25791146799 10.236421128706636 0.23044883804466348
0.5743015147350901 13.057867001404638 44739.741291664825 10.738626931191044 0.23372808078204677
0.5943570597944274 13.039541372655096 38336.48711507668 11.262315794880669 0.23704849367118108
0.6147914594020346 13.024523842090309 32909.02786482863 11.808432645422153 0.24041178878283176
0.6355914544732114 13.012443977133234 28300.233625819503 12.377956231617883 0.2438195986070861
0.6567627051597139 13.003036950553042 24376.33004044995 12.971586584334412 0.247269999307717
0.6782932102145929 12.995981692328387 21032.977014381344 13.590628306379331 0.25076752946092545
0.700179403488024 12.991079767966077 18040.634231474243 14.236289277528028 0.25431494560118806
0.7224102233251138 12.988013958653177 15733.372434520852 14.909758850892668 0.2579142317093822
0.7449974472055001 12.98664093544513 13637.92965478362 15.612080191249504 0.26156542134152755
0.7679151115550304 12.98675912970384 11838.545949118776 16.34449225366424 0.2652701394366106
0.7911584591441848 12.988128766775768 10291.83305837772 17.108623588802597 0.2690332075430837
0.8147306515886066 12.990653369358741 8958.682515526623 17.905928800712008 0.2728570573694323
0.8386109467930485 12.994117035917695 7809.615398891869 18.73778776684748 0.2767429025329104
0.8627888992411581 12.998399863673907 6816.502010086802 19.605515377002344 0.2806909619370936
0.8872633684186121 13.003328643091692 5956.794421956079 20.511210926324786 0.28470772260609284
0.9120219313274982 13.008833140434465 5212.6940795680675 21.456667947561478 0.28879619670579065
0.9370391027545678 13.01472456034209 4566.652491890616 22.44338895999788 0.2929564561786048
0.9623150857751933 13.020926029118334 4005.586262351396 23.473361839193355 0.29719200236001586
0.9878386124727994 13.027319550413477 3517.647138852916 24.549025990187705 0.30150907946899574
1.0135789358224152 13.03376999643042 3093.1707950569867 25.672345166355363 0.30590948117444705
1.039540285793041 13.040232557826506 2722.3204355055095 26.845236644349395 0.31039414489216977
1.0656896559342377 13.046550621733843 2399.07708347833 28.070817129379577 0.31497196116353615
1.092018208642152 13.05268188033911 2116.3891936388145 29.351165843838793 0.3196435453936914
1.1185151476692636 13.058519551671111 1869.2091473766902 30.68898852692951 0.3244132436035168
1.1451446369364195 13.063986826325898 1652.5559066240617 32.08773582631143 0.32928945949875155
1.1719055650918222 13.068993228218991 1462.6542521255835 33.549291701729985 0.334269522500304
1.198758726889852 13.073457439994943 1295.8325434940134 35.07822417893611 0.339367176105881
1.2257028672332801 13.077318139972432 1144.335762487724 36.67658865891957 0.34457938132605154
1.2526962664182277 13.080483716056445 1020.5274373624924 38.349379838466916 0.349920229580909
1.2797356552392185 13.082929852643634 907.0144385954035 40.098877337538234 0.3553865467020296
1.3067793690097256 13.084519898290512 807.0669025340733 41.930546337634865 0.36099285853293755
1.3338119399270534 13.08523860907168 718.7644821297218 43.847812896200985 0.36674078202979227
1.3608206912433434 13.085034421546181 640.8509712498538 45.85545272054606 0.37263856188202604
1.387750656198678 13.08378103467538 572.0124505296725 47.95875284269045 0.37869590597393815
1.414606069999519 13.08149257705009 511.0206467323336 50.16241398995016 0.3849181885072051
1.4413279920965951 13.078046553060533 457.04553309688316 52.47175788130335 0.3913129172967876
1.467921069026488 13.073453528609303 409.18066987387294 54.89314614702124 0.39789150942750884
1.494329490679212 13.06759191863662 366.67471134527926 57.43276513230636 0.40466302001490645
1.5205401659658506 13.060454778605605 328.9640574171525 60.09723897607637 0.41163721377677204
1.5465227391462197 13.05197291393225 295.4039473845843 62.893669018723244 0.4188246234518288
1.5722393542108366 13.042099296222325 265.57570146121327 65.82967698242884 0.4262366129866784
1.5976621687542816 13.03077857949824 239.0138564960602 68.91345230694688 0.4338854460491307
1.6227493599666651 13.017965507145417 215.31310203236146 72.15380407136307 0.4417843604943856
1.6475000450428545 13.003633689466053 194.17304093172302 75.56021798630759 0.44994764948623106
1.6718500891646901 12.987706632177655 175.30274473856431 79.14269487858172 0.45838981409098906
1.6957876336960906 12.970167934483289 158.42734635864818 82.91128428508041 0.46712354400817335
1.719252628213317 12.950930095390087 143.34203622776178 86.8787823934767 0.4761706592210843
1.7422556284511759 12.930035749379982 129.8329432122167 91.05684435133746 0.48554582739817254
1.764735427868833 12.907397291387015 117.73210208498823 95.45938402491616 0.4952702884248524
1.7866634814300524 12.882970414270012 106.86342151419105 100.10023509145861 0.5053622372308142
1.8080026318424895 12.856725667152832 97.12451167894365 104.99582703176071 0.5158470196598743
1.8287151654279745 12.828602972528337 88.36685415298689 110.16268998019194 0.5267471572967749
1.8487967814445994 12.798648627443324 80.49797043231031 115.61834689531506 0.5380856541582278
1.8681856385517 12.766754524948368 73.41259776772813 121.38318384763127 0.5498925274735528
1.8868578933188458 12.732916090432472 67.03611408338918 127.47851509225501 0.5621972054537937
1.9047828571385352 12.697113275191827 61.28164584225777 133.9268701020592 0.5750293329772895
1.9219283534095313 12.65931291070429 56.09748208622002 140.75369935765315 0.5884244192779574
1.9382450187182962 12.619436231287004 51.41371073909037 147.9867720839346 0.6024211006635498
1.9537560101992593 12.57764440237371 47.18179885387836 155.65469893554442 0.6170555672470074
1.9683658919327904 12.533696046184584 43.35643049865231 163.7909759113812 0.6323749443732827
1.9820870578487686 12.487710864505601 39.89611128228122 172.42921852296928 0.6484203168795721
1.9948815332479444 12.439650699508633 36.76068619138032 181.60895016596984 0.6652456998447165
2.0067140991410346 12.389493498716678 33.91840578642108 191.37201199347507 0.6829050311343836
2.017574399994792 12.337250307205123 31.342075652203484 201.76440173545748 0.7014574965412257
2.0274156698251593 12.282881849123614 29.003701700567657 212.83617475933258 0.7209661986778398
2.036231266188114 12.226433265469828 26.880060132704084 224.642482491217 0.7415004573894036
2.0439825975109787 12.1678568917928 24.952302430028954 237.244735210629 0.7631383136607923
2.050649202072333 12.10717110945359 23.197265622404135 250.70952632377774 0.7859615851290127
2.0562227859180915 12.044420530105073 21.60176928663542 265.1099635449231 0.8100585830741459
2.060683021833858 11.979612096262477 20.149415392709116 280.5279450146486 0.8355296564965702
2.064002574968076 11.912748298185369 18.828952907570738 297.05274666596245 0.8624804548008377
2.066164600451146 11.843853104915402 17.625239790625272 314.7848224379765 0.8910318940908611
2.0671661089139306 11.772979354995176 16.52941427724405 333.8336417636121 0.9213102538607082
