M[M_sun], R[km], Lambda[1], P_c[MeV/fm^3], rho_c[fm^-3]
0.24162668629717493 15.618656898711224 2160425.4255784233 3.5677272577965504 0.1711233750220791
0.25363847437692943 15.277429995281725 1723299.3119466247 3.7847355216863137 0.17388712498268105
0.26603082086409263 14.981458602458886 1383239.2010299598 4.011224726860815 0.17666452511057795
0.2788000463202754 14.723806912722559 1116657.8717439608 4.2474535789594245 0.17945432885889573
0.2919486121700629 14.498762066509952 906174.9874473393 4.49404598123563 0.18226307916926437
0.30547824529071016 14.301588406256078 738931.9455480087 4.751151286214977 0.18508635988815875
0.31938898269603694 14.12850226554805 605301.1092476221 5.019461941266891 0.1879310132813264
0.3336802282371659 13.976363308689798 497996.0825863748 5.299188024680594 0.19079338930477593
0.34835517040782377 13.842406177612272 411245.6416497224 5.591074139676759 0.19368010880328623
0.363410087627711 13.724413433245294 340872.2799737971 5.895267311450698 0.1965858611522689
0.37885630567243483 13.620378941747559 283504.9841483606 6.212639807694971 0.19951850005483093
0.3946803904487173 13.528838114895938 236596.59675628037 6.54346419893123 0.2024744743310373
0.41089831858188053 13.448235306996539 198036.717134551 6.888412396016418 0.20545698109241825
0.4274973745258616 13.377408866509903 166229.70287705274 7.248202496341831 0.20846933641341678
0.4444843708469528 13.315244859840083 139932.26200778122 7.623115140518982 0.21150743539272598
0.46185663184230413 13.260859173878764 118092.86070993243 8.014055768366621 0.21457676923074978
0.4796118727540372 13.213433495766825 99917.83017988953 8.421748479388691 0.21767930461542495
0.4977592903830607 13.172239643194825 84736.65024132287 8.84666345107655 0.2208129366360072
0.51628749409406 13.136637410435894 72022.51639892544 9.289615035117995 0.2239802440992817
0.5351961016612274 13.106053098808303 61352.6887411513 9.75151432556604 0.22718454366270577
0.5544914139964029 13.080004584406963 52365.944916200235 10.233169605638077 0.23042718416945013
0.5741623721348889 13.057994937225107 44785.82477184626 10.735093420512804 0.23370539454894784
0.5942136641451153 13.039688732611264 38377.83182552402 11.258447172917126 0.23702432245114513
0.6146353605210562 13.0246296391421 32948.19041227444 11.804206068150974 0.24038608414113452
0.6354266508146461 13.012544967847985 28331.559567057968 12.373347430259734 0.24379230955225775
0.656582897802609 13.00308794563608 24407.398259264733 12.966616722577175 0.24724159361590037
0.6781065996992481 12.99604759867892 21059.952128662477 13.585226832768502 0.2507374555030017
0.6999832605678838 12.991107711093479 18199.945891679854 14.230427243135242 0.2542831437785105
0.7222036492071774 12.988022161750326 15753.63914943731 14.903405447303973 0.25788063886967516
0.7447804552083908 12.986658587683543 13655.766108419222 15.60526460300713 0.26153058457539086
0.7676878843850837 12.986740503810125 11855.02780280336 16.337122214078448 0.26523340163774517
0.7909198274428441 12.988119228997311 10237.470621959124 17.100662126026315 0.2689944936455801
0.8144810798962191 12.990626507188821 8972.300132851014 17.897336492411707 0.27281628748092684
0.8383484932741655 12.994081596418974 7820.55420177888 18.72860271667007 0.27670070197981783
0.8625178849780399 12.998342293677634 6826.744585410694 19.59561819980516 0.2806465595448328
0.886979218568961 13.003273638207132 5966.35836971973 20.500554009565715 0.28466102234447355
0.9117245219823712 13.008769745164798 5220.747058474688 21.445200419244976 0.2887470960703864
0.9367337607730568 13.014655339983966 4574.332879940492 22.43115857865011 0.2929056581374093
0.9619987089684554 13.020843339858715 4012.398435782257 23.460215181725705 0.2971386098777872
0.9875095999815837 13.027232936773615 3523.524971512118 24.53490120653695 0.30145296840890096
1.0132404238084813 13.03368853325803 3098.0205454709608 25.657296916945025 0.30585140708184333
1.0391885522630981 13.040141577791701 2726.9909755859458 26.829081036885746 0.31033311191630497
1.065330158187709 13.046479828441102 2403.1146017461074 28.053478577802654 0.3149078183218731
1.0916459216478225 13.052596738683404 2120.1000752243476 29.332705780254074 0.3195771004993232
1.118129658646035 13.058443284837303 1872.3654179798623 30.669186652889053 0.3243433912097096
1.1447486026780855 13.063897774553087 1655.5028240278368 32.066576865704235 0.3292165170855925
1.1715000544825382 13.068917500258848 1465.276413485889 33.52668827945242 0.33419334663671824
1.1983489282417463 13.07339774851527 1298.31251553229 35.05398978420338 0.33928703953245914
1.2252778120023868 13.077262858983612 1151.6166971341977 36.650793592417095 0.34449617043450503
1.2522611844908114 13.080443373272487 1022.4878624620954 38.32172745654038 0.3498326328969706
1.2792923098435514 13.08289007003792 908.7762244961456 40.06943969652789 0.3552954764752241
1.306325099267492 13.084501267284832 808.6055449652157 41.899201813142 0.360898099286721
1.3333516483144152 13.085230699317691 720.2132799846217 43.814210242224604 0.36664089756416157
1.3603509102108364 13.085049028511417 642.2122543031024 45.819662315948776 0.37253448824721613
1.3872735535299294 13.083813714280097 573.168512078633 47.920621893333376 0.37858737298312967
1.4141135745675384 13.081527068574008 512.0688403890833 50.12152460144469 0.384803611934509
1.4408432252058772 13.078134592729784 457.9765103715272 52.42817493456834 0.3911932548541723
1.4674237867793256 13.0735507078485 410.0174390457779 54.84667676357448 0.3977664222046065
1.4938277324588172 13.067714576757256 367.4421338896768 57.383200815269696 0.4045321429103921
1.5200337301838163 13.060608991999448 329.6422417921373 60.044354212317785 0.41150015334841816
1.5460127582642738 13.052155186999999 296.0369435508336 62.8372197415693 0.4186809555535555
1.5717252074989254 13.042310928842685 266.13418946542345 65.76939887942504 0.4260858801697506
1.5971418090151552 13.031018159817402 239.51487143705012 68.84905895525753 0.433727154701976
1.622234211242604 13.018236946135453 215.78331854465435 72.08498488125852 0.4416179776924517
1.6469839705082063 13.003948428397518 194.59071456551723 75.48663593077131 0.449772599519881
1.67133871851547 12.988066605897748 175.69390390433105 79.06420810799712 0.45820641060418
1.6952749681431178 12.97056802358009 158.79123613400708 82.82744874619947 0.46693089018399364
1.7187391783953958 12.951368602373323 143.66004639889752 86.78900695494707 0.4759673620231708
1.7417549884699812 12.930543689274403 130.1283646415662 90.96109163463551 0.48533281284881874
1.764235353584772 12.907941817715098 117.99212428781468 95.35673221242092 0.4950450474272019
1.7861657948522076 12.883555763256387 107.11084426518248 99.99059481988955 0.5051256382813767
1.8075112310895602 12.857359311308787 97.33880859013135 104.8786301064149 0.5155981517432481
1.8282414667999534 12.829316121971841 88.56355515342698 110.03682989801271 0.5264832229737816
1.8483228897932746 12.799389804219963 80.675314207124 115.48360883196737 0.5378073318138827
1.8677216533537657 12.767553795817756 73.58054933215638 121.23883601199068 0.5495986881777689
1.8864056491038694 12.73377893956787 67.18319519797464 127.32374759462547 0.5618865883209627
1.9043445977814573 12.698031208029168 61.41866735379452 133.76136519087518 0.5747025748937935
1.921492622654181 12.660263734606358 56.22351922913578 140.57593888012752 0.5880780742688444
1.9378439148282494 12.620511270764839 51.53078990122513 147.7956922739163 0.6020535491421662
1.95335412211906 12.578727355598648 47.28794666189918 155.4497602668302 0.616667187955144
1.96799274180647 12.534876525693534 43.45401584497884 163.57033167445107 0.6319618599927803
1.9817343522555262 12.488965977150356 39.98446600372117 172.1920555614009 0.647982421401898
1.9942605175845165 12.441385076631006 36.88810661466494 181.4220506713493 0.7668644599310201
2.003779228216032 12.392568351186615 34.340217827318526 191.63867241227342 0.9683743537533938
2.0099842274523394 12.34070047410045 32.242026328530734 202.9638088981753 1.1725425255590105
2.0129884441321932 12.28471107826965 30.49126867344651 215.48284947905933 1.380216520011809
2.01307390741265 12.224352774385611 29.01269360063382 229.29110638630672 1.5922173265813713
