M[M_sun], R[km], Lambda[1], P_c[MeV/fm^3], rho_c[fm^-3]
0.24162668629717493 15.618656898711224 2160425.4255784233 3.5677272577965504 0.1711233750220791
0.2536446192558565 15.277277299839927 1723011.2490132055 3.7848514234316823 0.17388856964202423
0.2660428406165614 14.981202072005674 1382949.3459865928 4.011468373344155 0.17666746943453882
0.2788197148032676 14.723442597061657 1116330.1771742913 4.247833210941331 0.17945873201779267
0.29197789177232514 14.498291015567455 905787.1806482262 4.494571558293346 0.18226893159178212
0.3055143990723488 14.301116938436156 738589.9117056278 4.751840651500977 0.18509380634892098
0.319432989898618 14.128012402404696 605002.0487618974 5.0203201704322336 0.18793991774016286
0.3337339285944073 13.975818917154543 497595.47166816 5.300237709420903 0.1908039578883689
0.3484170296463807 13.841892313756285 410922.8284231903 5.592317898336988 0.19369214251047018
0.36348299131142814 13.723829749134554 340596.8039010402 5.896733083040866 0.19659962798923408
0.3789381470618326 13.619875497697212 283237.5326370865 6.214345326474929 0.19953405233252586
0.39477342479120925 13.528326518716558 236344.98053412364 6.5454076916904835 0.20249151613700583
0.41100101566240693 13.447766398693412 197812.71437873621 6.890631376733562 0.20547587886336457
0.42761187672525713 13.376940098735487 166026.89818583874 7.2507177831963565 0.20849014473695146
0.44461077321398595 13.314814335841943 139754.7143294496 7.625919779269529 0.21152976212055713
0.46199247228888474 13.26046409636296 117937.95487333003 8.017198671892539 0.21460108213045112
0.4797625781476947 13.213075696989234 99776.3171916862 8.425254150171348 0.21770566235887265
0.4979233798516332 13.171891909533626 84611.61416864493 8.850518961321132 0.22084085217751076
0.5164653367040198 13.136318339259383 71912.53291974477 9.293882770090093 0.22401028921954752
0.5353866502812252 13.105775245229195 61252.30897728644 9.75622321509449 0.227216783212978
0.5546974341115766 13.079756405604103 52280.96404747115 10.238343991416173 0.2304616042272976
0.5743830931169894 13.057797798659637 44711.9449295078 10.74072348284431 0.23374154129309116
0.594442160370947 13.039482434941364 38311.902233856265 11.26461122116037 0.23706283553611537
0.6148853196818744 13.024456188313467 32886.81254409073 11.810940508132285 0.2404270407723859
0.6356929227886461 13.012398618378324 28278.34470749422 12.380690938713768 0.24383579101072422
0.6568668085931155 13.002988206946776 24358.963057331064 12.97453557750803 0.24728685454340585
0.6784023175659564 12.99595829528232 21017.09168203821 13.593833465272917 0.2507853749269315
0.7002948252672663 12.991054268947192 18162.356861907938 14.239767789651427 0.25433381669922633
0.7225343262612948 12.987986285192628 15720.238167311809 14.913529008167934 0.2579341659520681
0.7451255838667058 12.986641746085368 13626.659218813222 15.616124672957934 0.2615860940492103
0.7680501310076996 12.986764818784055 11829.403354423457 16.348865835093417 0.26529194064310296
0.7913003122822856 12.9881393865721 10283.906400496971 17.113348222627035 0.26905618183747665
0.8148771941475531 12.990688148468012 8950.770739557192 17.911027895148667 0.2728812522079315
0.8387661980710844 12.994139238602795 7802.908911930192 18.74323870441765 0.27676794677065447
0.8629506925046837 12.998418113042241 6810.075584694537 19.61138903937875 0.2807173133558515
0.8874352983696927 13.003389279258837 5951.665653519043 20.517535586674963 0.2847354382484014
0.9121969591700877 13.008868562749777 5208.017552502693 21.46347381527443 0.28882533746044675
0.937221123883048 13.014769127625696 4562.673890963142 22.450647682746737 0.29298660478041355
0.9625089201303311 13.020983127630586 4001.8200108567225 23.48116451725194 0.29722369135401333
0.9880331163077738 13.027368139042126 3514.213469148516 24.557409354468117 0.3015423825955119
1.013780351502837 13.033825150396446 3090.0714344321827 25.681276763919104 0.30594394992957413
1.0397488757370288 13.04028412401605 2719.5388034304724 26.854825676349975 0.3104303705283753
1.0659040900862133 13.046608874718963 2396.64237127707 28.081108487196534 0.31501003337112643
1.0922416260267276 13.052739418831322 2114.282587854149 29.362123050478463 0.3196829846098351
1.1187434466751418 13.058576584038908 1867.0461165079018 30.70074241344906 0.32445470619984734
1.1453790174130747 13.064027200674953 1650.8011755318028 32.10024802755277 0.32933245018981455
1.1721453909082578 13.069035091599872 1461.0584407839801 33.56270899937444 0.3343147401767471
1.1990058874803597 13.073494412672106 1294.3578613397417 35.092609907410264 0.3394147458099653
1.225955709677113 13.07735348409135 1148.1450431977225 36.69190106850254 0.3446287767890562
1.2529539181568181 13.08051488803006 1019.3220235300043 38.365707458724124 0.3499717153812401
1.2800014562705668 13.082947054945988 905.997620809653 40.116352706350455 0.35544060965499114
1.3070551799939372 13.084551328348924 806.129024865017 41.94915403221488 0.3610491124127063
1.3340894265117886 13.085236387296623 717.9860830971732 43.86776156281561 0.36680007978366164
1.3610996934449715 13.085027556034847 640.0879461240506 45.876700556178456 0.37270034770174476
1.3880413115956682 13.083775551025129 571.3070221689077 47.981390613040595 0.37876034037598594
1.4148866373659799 13.081449231096324 510.40896383977355 50.186689954223205 0.3849862124343647
1.441619555686197 13.078004195053401 456.49957192140346 52.49763349820297 0.3913839620460381
1.4682152822902883 13.073395418165546 408.6715605749191 54.92073600399642 0.3979657763605584
1.4946275727898288 13.067518020127677 366.23036141729364 57.462193099184304 0.4047407260608484
1.5208405439025825 13.060362412853417 328.5709374263148 60.12863903620389 0.4117185927106189
1.5468254130411354 13.051866237841377 295.0460666486292 62.92718618304789 0.4189099272997677
1.572543300464347 13.041973434748575 265.23532507594746 65.86546829575464 0.42632611357163885
1.5979568121765333 13.03062814426917 238.69396437565817 68.95168795672855 0.4339794366918678
1.6230657843818228 13.017807432735996 215.03855938914174 72.19466861066925 0.4418831578870775
1.647807574303813 13.003441994365021 193.91708654668432 75.60391168403501 0.4500515957576576
1.672156794364799 12.987493833295572 175.0810368760939 79.18920702662618 0.45849832640024324
1.6960929449993516 12.96993100006429 158.22033500626583 82.96106874077827 0.46723794854237116
1.7195732774239822 12.950701306001678 143.1516569777101 86.93209546699492 0.47629138710207186
1.7425498695835404 12.929733693668682 129.66175665157894 91.11370823260782 0.4856723286031568
1.765033736490927 12.907079081307751 117.56759489286527 95.52034657800345 0.49540405387860253
1.7869449906210624 12.882596178106713 106.72579943481571 100.16534940048163 0.5055027510847815
1.8082939009406767 12.856350586691681 96.99890600226534 105.06543078953344 0.5159948233853998
1.8289980460643351 12.828191932272857 88.25047159826792 110.23715153030761 0.5269028365907165
1.8490780989298221 12.798207424500744 80.39678594484765 115.698372615347 0.5382509596810608
1.8684491025092942 12.766247628515172 73.31939318781706 121.46891935330814 0.5500670535445532
1.8747599721786867 12.738347154758781 70.1904227394939 129.61342462771432 2.0626502378814213
