M[M_sun], R[km], Lambda[1], P_c[MeV/fm^3], rho_c[fm^-3]
0.24162668629717493 15.618656898711224 2160425.4255784233 3.5677272577965504 0.1711233750220791
0.2536439880874192 15.277292549302048 1723182.4986981195 3.7848195859857703 0.17388817280361982
0.26603988592986005 14.981273604481741 1383033.9610976384 4.011401444205696 0.1766666606353994
0.27881496589204213 14.723521833091075 1116392.1360508404 4.24772892530648 0.17945752246158347
0.29196900913807605 14.498419771851012 905902.2372316073 4.494427179124246 0.18226732389622552
0.30550437309635764 14.30124839795914 738651.8575433859 4.7516512758752505 0.1850917607307343
0.3194208180172736 14.128145377230807 605113.0120588166 5.02008440283585 0.18793747156035243
0.3337182170073889 13.976000845577438 497696.1321439513 5.299949342063092 0.1908010545075637
0.3483999010403664 13.842035895151698 411011.0678839752 5.591976210696891 0.1936888365885572
0.36346084334683904 13.724021249088855 340651.0615973604 5.89633039783591 0.19659584588457188
0.37891577187091413 13.620004291796329 283305.1600460473 6.213876769879473 0.19952977966055419
0.39474810436113206 13.528450400415123 236419.05224965324 6.5448737496498675 0.20248683418663
0.41097238526963853 13.447903251852617 197868.9423276186 6.890021740497886 0.20547068694535764
0.4275806261969224 13.377074866269895 166086.91482351927 7.25002673110786 0.2084844278401248
0.44457513128559056 13.314935122567388 139798.00534623448 7.625149220830011 0.21152362797991112
0.46195660913724823 13.260583596143784 117979.36136482522 8.016335165373873 0.2145944022094142
0.4797219770803252 13.213148960927132 99814.93124483575 8.424290961000208 0.21769842052281946
0.4978774461284852 13.17199173417528 84640.69425201415 8.849459640518404 0.22083318224228607
0.5164169152192803 13.136396000046666 71940.19241864787 9.292710172776504 0.22400203406135694
0.5353351209188294 13.10584696205558 61279.152651685 9.754929389463362 0.22720792499784548
0.5546409557322264 13.079806230407907 52300.277050867626 10.236926848161579 0.23045220593895158
0.5743233078381501 13.057855120970295 44731.81566973929 10.739176515331904 0.23373160928247094
0.5943798200924274 13.039520994042748 38330.19080073123 11.26291750844923 0.23705225318844622
0.6148154958932688 13.024528732466349 32903.334871502215 11.809090042918932 0.24041578685645568
0.6356195827992559 13.012440601402243 28293.50629570318 12.378673089293857 0.2438238431745785
0.6567902306823556 13.003028180515061 24371.913115716117 12.972359610274678 0.24727441760699737
0.6783220411742241 12.995973913183748 21028.815655658003 13.591468477421461 0.2507722073081927
0.7002093730161019 12.991065860705246 18173.106017763028 14.23720109835565 0.25431989227367935
0.7224433438852277 12.988005502587022 15730.633805429434 14.910747115616584 0.25791945703750674
0.7450299500910417 12.986657350204018 13634.618600108673 15.613140359792226 0.2615708402198803
0.7679511412391546 12.986759709584923 11837.148770797252 16.34563868248027 0.2652758540967242
0.7911947662196561 12.988131278316816 10289.165831864213 17.109862031349802 0.2690392296698189
0.8147685924746313 12.99066942749656 8956.715950521573 17.907265391885787 0.272863399398981
0.8386510400122912 12.994121543818162 7758.186688145691 18.739216578434878 0.2767494671828675
0.8628311752941547 12.998396650699862 6814.943740201353 19.60705498638136 0.2806978691933964
0.8873110642774453 13.003360529664759 5955.681409642731 20.51286874328442 0.28471498741705853
0.912066951411677 13.008849943417799 5211.420913161179 21.458451889282415 0.2888038350276334
0.9370870261787542 13.014734859795785 4565.529907665577 22.44529159540278 0.2929643586428804
0.9623653140195515 13.020931665637743 4004.60531848412 23.475407044069165 0.2972003085447061
0.987889442498155 13.02733557200085 3516.684705029478 24.551223390682203 0.3015178086980054
1.0136316191122667 13.033793391648645 3092.016350861158 25.674686256863282 0.3059185158935857
1.0395958293190692 13.040242148902752 2721.607590014826 26.84775004395248 0.31040364006328347
1.065745933553602 13.046568514889056 2398.466859507724 28.07351460263545 0.31498194029006094
1.092077108502958 13.052695594204353 2115.9137204676263 29.354037830733642 0.3196538827831039
1.1185750671578505 13.05853553495469 1868.6992544551783 30.692069314464582 0.3244241112811768
1.145205181791609 13.063988088770216 1652.2164935490725 32.0910153597949 0.32930072765277973
1.171968588115121 13.069005049283872 1462.1444159655805 33.552808447769465 0.33428137429704874
1.198824258214853 13.073464386069666 1295.59720833244 35.081994734859514 0.3393796443121197
1.2257698622941164 13.07732531351485 1149.1333321565269 36.68060208330588 0.344592328011857
1.2527641618423249 13.080490750842461 1020.2408399720875 38.353678799367195 0.34993383828607116
1.279805929172749 13.082938227721957 906.7619296625501 40.1034576317431 0.355400716602122
1.3068499415555008 13.084523164483794 806.7887192544647 41.93542339116361 0.36100760260462533
1.3338868043139653 13.085236797476862 718.6118769765399 43.85304138569649 0.3667563238045486
1.3608931087897367 13.085033643365545 640.6685783101742 45.86102169111433 0.3726547556919511
1.3878247965919757 13.083778143554222 571.8284021248211 47.964686079630745 0.37871279388156076
1.414681559087995 13.081485875504839 510.8585363587269 50.168776549014865 0.3849360170988729
1.4414042645804255 13.078035361682186 456.91197969861713 52.478539662644884 0.39133153752743755
1.467999110767685 13.07343971589059 409.05445646227776 54.900377177741106 0.3979109740617342
1.4944074643498497 13.067572929425312 366.55159641994953 57.44047787164875 0.40468338589611613
1.5206193238764913 13.060430452122034 328.8629337473716 60.10546853317508 0.41165854216213194
1.546602553317546 13.05194487045243 295.31059094318385 62.90245339207561 0.41884698038039925
1.5723180566489072 13.042066672377397 265.4818787938723 65.83905732351438 0.4262600696843034
1.5977425089643698 13.030740055058608 238.93666604689025 68.9234732107065 0.4339100793740657
1.6228294378428798 13.017921130383106 215.25507255345553 72.1645138965829 0.4418102534281093
1.6475809653253752 13.00358457037935 194.1068732794002 75.571669209337 0.4499748916744434
1.6719326720915333 12.987649764309657 175.2503987336023 79.15488469495378 0.4584182527931245
1.6958678609863955 12.970105965709319 158.37377663085314 82.9243316164309 0.4671535267376168
1.719347985731044 12.950895379049442 143.2873693825706 86.8927543987415 0.4762022989386517
1.7423339023735362 12.929955897542007 129.78671634020208 91.07174684645659 0.48557897996440136
1.7648134651003806 12.907314035518887 117.68758570369394 95.4753605592335 0.49530534450853136
1.786740494272132 12.882878466950558 106.82787816370964 100.11729957583461 0.5053990616477758
1.808079385744711 12.856627976394009 97.09001089802277 105.01406794740969 0.5158857542824894
1.8287902462292436 12.828496327482647 88.33703641653295 110.18220383831647 0.5267879555832755
1.8488699596887834 12.798533810647188 80.47120981779602 115.63931877057892 0.5381289748156852
1.8682569613017765 12.766627884260783 73.38465765957964 121.40565189470864 0.5499382641837816
1.8869268788994216 12.732781947578184 67.01342891848911 127.5026054449227 0.5622455545993774
1.9048505371569475 12.696971120911586 61.25923078945674 133.95263223624656 0.575080195429247
1.9219941666484013 12.659157572897206 56.07864879373484 140.78136973465448 0.5884783316948686
1.9383099820314296 12.619286123099412 51.397533613751044 148.0165163920954 0.6024783153201687
1.9538065960664657 12.577433417173816 47.16561519291446 155.68660119696577 0.6171160252258622
1.9684242342259726 12.533511878190541 43.34207204084527 163.82522943534323 0.6324389302407104
1.9821407229774135 12.487515106991353 39.88247472334455 172.46613866769215 0.6484884858900378
1.9949294780144515 12.439446181502985 36.74606274814462 181.64867075948865 0.6653180514565682
2.0067682280026657 12.389289634559509 33.90431367793641 191.41479095096855 0.6829819353793262
2.017617667265876 12.337021432952081 31.329712783764897 201.81052356585656 0.7015393582406406
2.027456397940312 12.282641070475936 28.993140119843158 212.88583735649513 0.721053080420357
2.0362684253964844 12.226181454872167 26.87163714717182 224.6961454762908 0.7415932151366381
2.0440167069056687 12.167591822622583 24.942643408578704 237.30265999335046 0.7632370807363936
2.0506778424634975 12.106892283316304 23.189957145579307 250.77220117199715 0.7860671529141339
2.056252662605724 12.04415206563741 21.595577103768157 265.1778419085535 0.8101715366148766
2.0607006200841456 11.979308965790501 20.143083749512815 280.6013547017061 0.8356500654692995
2.0640086709734047 11.912420573675817 18.82248372340634 297.1323904046781 0.862609491928211
2.066171852630364 11.843525282228601 17.62002410295724 314.8713396968727 0.8911703912057187
2.0671679072784177 11.77264081418793 16.524743757223767 333.92760310904583 0.9214586583002415
