M[M_sun], R[km], Lambda[1], P_c[MeV/fm^3], rho_c[fm^-3]
0.24162668629717493 15.618656898711224 2160425.4255784233 3.5677272577965504 0.1711233750220791
0.2536446387630709 15.27728647161037 1723065.5855898552 3.7848456424467507 0.1738884975848359
0.26604252859265687 14.98123043359762 1382886.6207286732 4.011456220414794 0.17666732257355963
0.27881887446735404 14.723477642267605 1116352.7101950804 4.247814274765513 0.1794585123866894
0.2919754229575979 14.498323220357682 905790.1407141584 4.494545341816813 0.18226863966523138
0.3055141853317614 14.301091947275236 738589.891577835 4.75180626437419 0.18509343490232286
0.3194311553908954 14.128025208223416 605011.5310345198 5.020277359189032 0.187939473556991
0.33373124055946846 13.975877879657059 497610.05211275065 5.3001853467494175 0.19080343068315242
0.3484139478432256 13.841917693125604 410931.2286194136 5.592255853334393 0.19369154220800208
0.3634794043440176 13.7238557113388 340611.549515374 5.896659961532735 0.19659894121655555
0.37893363692213505 13.619908609843518 283246.7915022357 6.21426024334917 0.1995332764768657
0.3947688301660467 13.528338164441275 236367.7071148758 6.545310735119751 0.20249066595886242
0.41099585307029923 13.447794972430424 197824.66342347374 6.890520674654011 0.2054749360780008
0.42760629097874436 13.376959529703639 166029.60581264776 7.250592296508675 0.20848910661774375
0.4446041128120307 13.314831097167573 139770.614239924 7.625779854653472 0.2115286482306421
0.4619857608578091 13.26047804406839 117940.36766925285 8.017041868303885 0.21459986912792262
0.4797550266133616 13.213079557684553 99783.23490497965 8.425079244538868 0.21770434731302998
0.49791531511611375 13.17193794161206 84619.83393886132 8.85032659842369 0.22083945938794294
0.5164563015328155 13.136329776993644 71918.68810535758 9.293669836338296 0.22400879015265998
0.5353773897791119 13.105780853493778 61256.20430192099 9.755988266333878 0.22721517462939722
0.5546872996175404 13.079765022424047 52287.70704475373 10.238088009753277 0.2304599150717381
0.5743721269919488 13.057810148508505 44714.468942766114 10.740442563315359 0.23373973770269732
0.5944321144790242 13.03950127626933 38314.52354405823 11.264303652372702 0.23706091384076416
0.6148724331813407 13.024476848287389 32889.70489618264 11.810604472591576 0.24042499711563547
0.6356805634275713 13.012413654218415 28280.763571112446 12.380324505514611 0.2438336213325616
0.656853021640432 13.003005510070048 24361.027808987426 12.974140429404203 0.24728459603888248
0.6783876901194359 12.995965019323783 21019.425442885553 13.593403989935599 0.2507829837233166
0.7002795894675552 12.991043353767147 18164.913569278357 14.239301683624095 0.25433128805127975
0.7225170315798197 12.98800059936512 15722.534023592 14.913023819964277 0.25793149483160316
0.7451077466626773 12.98665336395365 13628.166137478363 15.615582723598424 0.2615833239635737
0.7680317842968377 12.986757655826901 11830.807251454891 16.348279783859187 0.265289019324687
0.7912799037198435 12.988147198541174 10285.000761641297 17.112715127359685 0.2690531033095756
0.8148571835501439 12.990683788278849 8951.760328463622 17.91034461859139 0.27287801010952384
0.8387447052645932 12.994143113529905 7803.9185939261115 18.74250827751567 0.2767645908369729
0.862927931092863 12.998425619583573 6810.801671613707 19.61060196260349 0.2807137822387442
0.8874135969498494 13.003369986511618 5952.309835102513 20.51668807067445 0.28473172430187776
0.9121725088657436 13.00886689506572 5208.516089912417 21.46256181116155 0.28882143252293996
0.9371967374845518 13.01476420292821 4562.738550741945 22.44967499015753 0.2929825647691651
0.9624829639504994 13.020970382136504 4002.495549983262 23.480118926559854 0.2972194448995375
0.9880076975247866 13.027362026796242 3515.0147694231287 24.5562859426193 0.3015379198135452
1.0137532941545366 13.033816058512329 3090.4568992469744 25.68007988023236 0.30593933092492015
1.0397224856743377 13.040269891606965 2720.031731987548 26.853540684868502 0.3104255160619461
1.0658757973896031 13.046601657920911 2396.8349255227663 28.079729370984126 0.31500493142057107
1.0922099626805686 13.05273282928238 2114.3814832150338 29.3606546983095 0.31967769944359964
1.118712628430261 13.058563507363944 1867.2950832231388 30.699167289899936 0.3244491498494624
1.1453468306947001 13.064019477052963 1650.9920767549804 32.098571274563604 0.3293266890316973
1.1721135474220405 13.06902569798827 1461.1781664840364 33.560910943290544 0.334308680542357
1.19897313130508 13.073488734906478 1294.6514708613627 35.09068205898608 0.33940837093786735
1.2259228046870865 13.077344455225713 1148.3533675878018 36.68984902347415 0.34462215720944434
1.252921820283146 13.080506811953063 1019.5245047029589 38.36352288695864 0.34996483637417797
1.2799654965445055 13.082942984764612 902.2486354877917 40.11401077043299 0.3554333644876527
1.3070185744693819 13.084550723062337 806.2599613943734 41.94666033536275 0.3610415735893289
1.3340524466103427 13.085239138231696 718.1023738847252 43.865088137878665 0.36679213298215546
1.3610624167325125 13.085031770066555 640.2192269783818 45.87385300633267 0.3726920674136036
1.3880029729572005 13.083781590763422 571.3986846858145 47.97835677181904 0.3787517050845241
1.4148475617189822 13.081454290027173 510.4886331196385 50.18343654374066 0.3849770960196594
1.4415808549440856 13.078007062964389 456.5759958484143 52.49416568461033 0.39137444072919014
1.4681760713852208 13.073406255286796 408.7397034604862 54.91703842726285 0.39795582314898637
1.4945866698722987 13.06752939103311 366.2773069071351 57.45824915485351 0.40473031187489283
1.5208002905371674 13.060376276280692 328.6214895743821 60.12443076395266 0.4117076862121042
1.5467853844849748 13.051879829933835 295.0856027526607 62.92269414412266 0.4188984947035701
1.5725020890102497 13.041990242870902 265.2793545351205 65.86067143804743 0.42631411843843825
1.597916152676674 13.030644782568807 238.74234906606486 68.94656346610125 0.43396683970004185
1.6230247360961088 13.017831157438504 215.0789051601627 72.18919174696805 0.4418699165814615
1.6477670121446972 13.003468375982527 193.95164547563385 75.59805560003903 0.4500376642726105
1.6721151417856872 12.987524388276086 175.11696951703047 79.1829731586422 0.4584837828575567
1.6960519736237625 12.9699607349489 158.24791366615773 82.95439624515464 0.46722261516686153
1.7195316716408253 12.950736756927 143.1760255062514 86.92494998272294 0.47627520609584095
1.7425131515406256 12.929788011024549 129.6880273770586 91.10608678591105 0.48565537368961015
1.7649941914814038 12.907122217283227 117.59144957720342 95.51217572018184 0.49538612519207803
1.7869047383415577 12.88264077088904 106.74547139823405 100.15662201605114 0.5054839177678073
1.8082559097400215 12.856400443753978 97.01597695892698 105.0561016062405 0.5159750128451226
1.8289591376137153 12.828246276555687 88.26967175262943 110.22717116612984 0.526881970304075
1.8490414390198318 12.798264854881497 80.4102495631635 115.68764636598317 0.5382288029512193
1.8684123933899577 12.766311504295343 73.33322375169794 121.45742769755256 0.5500436607446568
1.8870862667267057 12.732476677917106 66.95639732734163 127.55795780782704 0.5623563921722761
1.905008552358061 12.696641145836553 61.213395742028474 134.01199996430404 0.5751974057579484
1.9221462060858578 12.65880507820569 56.03485806623737 140.84513550835686 0.5886025716709391
1.9384538768418382 12.618899968795834 51.353490083358516 148.0850621405771 0.6026101664777369
1.9539468457034546 12.577036223466598 47.131180892969184 155.7601205872179 0.6172553518297847
1.9685560612197248 12.533082856512262 43.3102906224263 163.9041680703818 0.6325863882669882
1.9822675688050142 12.487067962157296 39.85041288721198 172.5512235223057 0.6486455857710962
1.995049425934418 12.438965290865278 36.71932216339817 181.7402103208097 0.6654847920367823
2.0068809076667473 12.388787723372715 33.88024321713442 191.51337977530636 0.6831591696912334
2.0177204260907775 12.336492634733588 31.304692905234038 201.91681752521484 0.7017280195334671
2.027550228432429 12.282091689866277 28.97186950309785 213.00029263189992 0.721253313077036
2.0363525898588364 12.225599032979611 26.850694917814636 224.81982167399823 0.7418069923886881
2.044089007622003 12.166983391476363 24.925216316198924 237.4361597358623 0.7634647100608715
2.050739921540495 12.10625281364653 23.17220673473076 250.91648915140019 0.7863099346255504
2.056304459690391 12.04348213373381 21.579002494987076 265.3341658992118 0.8104314781698542
2.0607419862465832 11.978610068574755 20.12850471654662 280.7705486248798 0.8359275828828451
2.064038271057271 11.911689550372516 18.8088405265684 297.31595485241724 0.8629068992248308
2.0661867031306316 11.842762021369136 17.608443222863944 315.07074901445753 0.8914896063023778
2.067172905867338 11.771853470380323 16.51367244847747 334.144172762598 0.9218007127685652
