M[M_sun], R[km], Lambda[1], P_c[MeV/fm^3], rho_c[fm^-3]
0.24162668629717493 15.618656898711224 2160425.4255784233 3.5677272577965504 0.1711233750220791
0.2536449520944211 15.277276699861996 1723215.3832387887 3.784838281387978 0.1738884058327894
0.2660416875989888 14.981233557056262 1382910.2795555715 4.01144074585333 0.17666713557261682
0.27881771703500574 14.723501488871243 1116367.5037655358 4.247790163021703 0.1794582327267968
0.29197362293183976 14.498365186877866 905858.9860182259 4.494511960023869 0.18226826795121945
0.30551012476933204 14.301151944389773 738638.1313822925 4.751762478885088 0.18509296193547467
0.3194289697359366 14.128039179656895 605040.7335039824 5.020222847305385 0.18793890797515853
0.33372552491543117 13.975910705657887 497640.11094686587 5.300118673111882 0.190802759390254
0.34840996695566023 13.841951801626141 410958.076470406 5.592176851307627 0.19369077784166042
0.3634747324743805 13.723894188543747 340621.0272708588 5.896566855977773 0.19659806674948013
0.37892802297136957 13.619951095553198 283262.28876940004 6.214151907317379 0.19953228858270083
0.3947630542828866 13.52838204699313 236374.3938565002 6.545187280924732 0.20248958343235055
0.41098931483196954 13.447825675906458 197837.36038957824 6.890379718695861 0.20547373563791133
0.4275987930618148 13.376993470685688 166047.28902367546 7.250432515788694 0.20848778479279564
0.4445957611729494 13.314865265913818 139778.60652428985 7.625601690635175 0.21152722993049736
0.4619788661863595 13.260510524773396 117962.32792693829 8.016842212955932 0.21459832463239178
0.4797459550842362 13.213093677427624 99793.09529964309 8.424856540638208 0.21770267289103137
0.49790480511610774 13.171928908300401 84624.36760275414 8.850081666987581 0.22083768597969436
0.5164445863213686 13.136360125763648 71925.12305741654 9.293398713054406 0.22400688142783884
0.5353646825539612 13.105804734924039 61264.27770479701 9.755689112507538 0.22721312646395075
0.554673155799579 13.079792934827942 52291.44063575648 10.237762075895473 0.23045776432007206
0.5743583259382745 13.057806412123568 44717.433246263 10.74008487755145 0.23373744124929585
0.5944173684159157 13.039494759332024 38317.84720319378 11.263912035775876 0.2370584670131804
0.6148558234116104 13.024482463394733 32893.61239642329 11.810176611153612 0.2404223950042216
0.6356630060200956 13.01243355477096 28284.584393297235 12.379857940839745 0.24383085876850122
0.6568353271162991 13.002999561477022 24364.059832169 12.973637304065841 0.24728172038076465
0.6783691255203753 12.995966567606501 21021.806499376464 13.592857158305742 0.2507799391113065
0.7002589217360071 12.991049103569978 18166.70931236205 14.238708213001415 0.25432806844418737
0.7224963409661375 12.987995817920215 15724.367098369825 14.912380589187432 0.25792809382801835
0.7450867522804786 12.986638051813832 13629.933224497436 15.614892687860007 0.2615797969585977
0.768009488115506 12.986756392638734 11832.3964196475 16.34753359704597 0.26528529977057325
0.7912565138408165 12.988143818127615 10286.809904921542 17.11190904362668 0.26904918359734487
0.8148339826099574 12.990669032653988 8953.584921407924 17.909474643711626 0.27287388214092556
0.8387183375754578 12.994139878160993 7805.283446458326 18.74157827051394 0.27676031793599853
0.8629027119114029 12.998416259442541 6811.906455265105 19.609599828935515 0.28070928629698866
0.8873851007608983 13.003368086028535 5953.285528288875 20.51560898592656 0.28472699558519776
0.9121428900142263 13.008859746316952 5209.333077573467 21.461400620506573 0.28881646064082106
0.9371653580482947 13.01475642604021 4563.528049815298 22.448436531247904 0.29297742091592616
0.9624515078042706 13.020966745004023 4003.095725641297 23.478787654611157 0.2972140382085944
0.987974166389791 13.027353989095918 3495.9270688565903 24.554855589908186 0.30153223770124427
1.013718161691529 13.03380456850421 3090.6889813195226 25.678555984198635 0.30593344991664023
1.0396854074564799 13.040265942692619 2720.278126276755 26.85190461179476 0.3104193352724805
1.0658390420615478 13.046594310907901 2397.3086376284896 28.07797346054407 0.31499843554432494
1.0921736991195483 13.052721657031755 2114.8061689963633 29.358785174694546 0.3196709703064791
1.1186750055520853 13.058551545821912 1867.6395677848643 30.69716182815485 0.3244420754532059
1.1453070908979903 13.064013508634378 1651.401632239551 32.09643642115196 0.3293193538856495
1.1720725366551326 13.069017179379742 1461.4257528963537 33.558621651159065 0.334300965391838
1.198930943867793 13.073474390276504 1294.8877197078311 35.08822752039077 0.3394002544441596
1.2258783842329954 13.077343064063374 1148.5842929057492 36.687236362550486 0.3446137291697358
1.252875955619507 13.080499335144554 1015.2658991684049 38.36074149848396 0.3499560780485133
1.2799208743549757 13.082945678707446 906.286392817604 40.11102903364512 0.3554241399901649
1.306966088237809 13.084526326930789 806.4306529380851 41.943485383842 0.3610319752298786
1.334005680124447 13.085238792028221 718.2789979718638 43.861684366605864 0.3667820152136318
1.361015162255479 13.085033178915728 640.326813269985 45.870227548782424 0.3726815250755287
1.3879475488670563 13.08376809091126 571.5563948179689 47.97449413890906 0.37874071078437727
1.4147974929249554 13.081459399345583 510.588703861418 50.179294369784905 0.3849654891917584
1.4415309453227718 13.078015864187105 456.6795231275849 52.489750546626226 0.39136231841449504
1.4681263567833454 13.073413796291721 408.8345518439753 54.91233077064948 0.3979431509840367
1.4945366570162582 13.067542605857753 366.36075576848117 57.45322784082186 0.40471705283934845
1.5207490804436086 13.06039184683203 328.7020393995196 60.119072927665826 0.41169380041051723
1.5467332355914427 13.05189996163629 295.1543026845425 62.91697503867734 0.41888393912552274
1.5724497174369612 13.042012101062761 265.33676152798506 65.85456426272141 0.42629884669472884
1.597864127219756 13.030671655960031 238.79865250228008 68.94003917709861 0.4339508017323268
1.622962992442896 13.017848897547523 215.13440965291653 72.18221884867341 0.44185305834244276
1.6477139192702843 13.00350156590622 194.0064542724949 75.59059991455173 0.45001992737352337
1.6720635349702213 12.987559467531925 175.14630758062816 79.17503651408741 0.4584652667566115
1.696000164215982 12.969999443866714 158.28857635251248 82.94590118504973 0.4672030935434821
1.7194799190405863 12.950781748220265 143.21020206386223 86.91585276423189 0.47625460537187536
1.742460013233099 12.9298296083472 129.71546049887388 91.09638362285342 0.48563378772341287
1.7649433272621649 12.907173188026137 117.61532738004753 95.50177311049323 0.49536329954363134
1.7868692216658344 12.882734613698988 106.7671434678627 100.1455109010157 0.505459940463603
1.8082060612218287 12.85646430960978 97.0384042142654 105.04422435308038 0.5159497914731414
1.8289193806479875 12.828329827303461 88.28675157594257 110.21446491050092 0.5268554049035176
1.848992009648928 12.798340226787378 80.42110435242233 115.67399054899987 0.538200594745592
1.8683655175025327 12.76639314448333 73.34927087949718 121.44279746796335 0.5500138789585942
1.887041288625315 12.732563829860903 66.97225457065504 127.54232664336607 0.5623251076341854
1.904963698513694 12.696734628658396 61.225357204431525 133.99522435635933 0.5751642854990856
1.9221027371758848 12.658906034707007 56.046712380179756 140.82711705722753 0.5885674648760685
1.938413773915674 12.619004507850482 51.365852657914125 148.06569290890957 0.602572908796945
1.9539072644388353 12.577147787664813 47.14129778910323 155.73934584441238 0.6172159816125872
1.968520061209815 12.53320851063069 43.32139597315475 163.88186188348246 0.6325447201244829
1.9822313550816857 12.48719426576999 39.859475158889715 172.527180434516 0.6486011928383094
1.9950153366581524 12.439100228091752 36.72677067899245 181.71434315037567 0.6654376746271682
2.006848548940488 12.388930447593111 33.88603444624315 191.48552048921917 0.6831090867185124
2.017691301663163 12.336641785149249 31.31253291082606 201.88678075995824 0.7016747072380193
2.0275243345614244 12.28224741242312 28.978480300021506 212.9679494636312 0.7211967306391802
2.036328876309128 12.225763249287557 26.857016062049087 224.78487262787888 0.741746582130452
2.0440679937774315 12.167156719141863 24.931016700345243 237.3984344977501 0.7634003850643908
2.05072254250969 12.106433503189194 23.17642747497022 250.8757150711418 0.7862413273789349
2.056289621162221 12.043671479300375 21.584433489458643 265.2900405000641 0.8103581848258605
2.060730267918497 11.978807674756116 20.132919564838392 280.7227358430502 0.835849158792317
2.064030237723644 11.911897368570324 18.813043643630206 297.2640807497149 0.8628228538835934
2.0661856765634705 11.842980745473735 17.61084415474987 315.0143968819619 0.8913993976218637
2.0671718559533776 11.772075969661433 16.51654314611878 334.0829707997793 0.9217040491570714
