M[M_sun], R[km], Lambda[1], P_c[MeV/fm^3], rho_c[fm^-3]
0.24162668629717493 15.618656898711224 2160425.4255784233 3.5677272577965504 0.1711233750220791
0.25364417866826994 15.277262504780587 1723221.7023673963 3.784823173202975 0.17388821751655176
0.2660406291495954 14.981242435069396 1382985.8934480113 4.01140898526556 0.17666675176465743
0.27881649414834125 14.723452529333159 1116360.9641446418 4.247740675348538 0.17945765874436442
0.29197035384912057 14.498400614639621 905858.2191530211 4.494443446492779 0.18226750503714959
0.30550558183123033 14.301229182274625 738639.7210185278 4.7516726129389175 0.1850919912117443
0.31942193334437397 14.128143966649539 605102.5243007948 5.0201109667833155 0.18793774717156014
0.33372028058711717 13.975961932720015 497648.63641696476 5.299981832268333 0.19080138163001947
0.3484018336716117 13.842020621317053 411002.559151859 5.592014708294658 0.19368920906340592
0.36346484313520366 13.723971958028912 340638.06415290135 5.896375767748583 0.196596272008393
0.3789183161040804 13.620001233864693 283301.19795601803 6.213929561166463 0.19953026105352667
0.39475081423651964 13.528472400586022 236402.5326944297 6.544933907514953 0.2024873616898375
0.41097616059067316 13.447855894017097 197858.36687224486 6.890090426309806 0.20547127190255482
0.4275841405007521 13.377055200860337 166073.06889220202 7.250104589427169 0.20848507194204707
0.4445790763582937 13.31492152597777 139798.6685260059 7.6252360364779666 0.21152431908829114
0.46196086065394515 13.260564721208594 117981.24692550396 8.016432452653676 0.21459515480517688
0.4797257487963489 13.213172406896199 99811.5687056796 8.424399478567892 0.21769923642322367
0.49788289651283985 13.171980149305899 84641.70568372076 8.849578988264126 0.22083404637095846
0.5164211706282954 13.136410122589343 71936.7253849883 9.292842282158233 0.22400296411964035
0.5353407917451429 13.105836031334636 61274.113119607435 9.755075156245818 0.22720892299439702
0.5546472495993464 13.079831063144038 52298.85570666121 10.237087222541149 0.2304532739697573
0.5743291180411026 13.057840234363733 44728.22818150302 10.739350800487959 0.2337327282471596
0.5943869755220398 13.039519423570134 38328.27310312725 11.263108325433535 0.23705344541641726
0.6148238969629128 13.024500962828798 32901.585969749794 11.809298519023374 0.24041705473900538
0.6356286857195307 13.012435754775806 28291.864009093948 12.378900422140733 0.24382518922923363
0.6567988206003073 13.003030439572782 24370.08038317467 12.972604755913137 0.2472758187589401
0.6783305526599509 12.995977005703155 21027.175630829388 13.591734917050744 0.25077369077266515
0.7002191613559666 12.991066271996344 18172.27048699653 14.237490260628546 0.25432146099312236
0.722454196892391 12.987994837081391 15729.350291459323 14.911060520981371 0.2579211141298094
0.7450401850772289 12.986647317281307 13633.645948300833 15.61347656844251 0.26157255869548457
0.7679624597574227 12.986749296153778 11836.12030155529 16.346002247486055 0.2652776663770928
0.7912059782622974 12.988138854975743 10288.579391703523 17.110254777429766 0.26904113946101077
0.8147806426141865 12.990672951185159 8955.727796103454 17.90768926473772 0.2728654106453551
0.8386627843113823 12.994136032557531 7807.067831233541 18.73966969799352 0.27675154903278915
0.8628457093476201 12.998394864828656 6814.479205394662 19.60754324443581 0.28070005969935846
0.8873256483867518 13.003364531414528 5955.3104853129 20.513394489887183 0.28471729132019014
0.9120824195127472 13.008848037876774 5211.025778370296 21.459017635415307 0.2888062573887417
0.9371019693271512 13.014735408161279 4565.0002015471 22.445894984342036 0.2929668647770165
0.9623856403594984 13.02094990816717 4004.4388454029718 23.476055648088536 0.2972029427183478
0.987906548543981 13.027333808977959 3516.549215709796 24.55192026279838 0.3015205770401022
1.013648890917152 13.033790304718623 3091.77072390171 25.675428699537715 0.3059213811228527
1.0396128486617484 13.040246733793182 2721.375020134608 26.848547133901594 0.3104066513255796
1.06576303504516 13.046574387448748 2398.2460259691074 28.07437007112413 0.3149851050399868
1.0920954773775933 13.052702516799108 2115.7199335818277 29.354948645780908 0.3196571611580308
1.1185938392428143 13.058540300305294 1868.5937417068847 30.693046350517246 0.32442755783916294
1.1452248829807403 13.06399335004837 1652.063701894633 32.09205542795748 0.32930430122454374
1.1719880904466566 13.069008445065952 1462.027764759773 33.55392374817735 0.3342851329744156
1.198844923431809 13.073460522704275 1295.4736052262533 35.083190531627444 0.33938359848785005
1.225789519102655 13.077337087493468 1149.01474001613 36.68187490626442 0.34459643394169254
1.2527857655890755 13.08049822851402 1020.155014343294 38.35503381406089 0.34993810509744105
1.2798284287380748 13.082939315452819 906.6620409408683 40.104910239658224 0.3554052104857265
1.3068712151920197 13.084527902294692 806.7039755932453 41.93697011765138 0.3610122785931259
1.3339083426311724 13.085234927170795 718.5383121590768 43.85469957248379 0.36676125279323146
1.360918193423584 13.085034253681503 640.5882909363266 45.862787863685014 0.37265989148187023
1.3878482305157813 13.083773750833934 571.7779435262316 47.96656778197591 0.37871814981386187
1.4147050554565663 13.081486674714228 510.7877984581212 50.17079441503294 0.38494167138182894
1.4414293782946102 13.07803053245103 456.8695401566622 52.480690488969856 0.3913374428906809
1.4680230804056416 13.073431797540207 408.9992529539975 54.90267048818593 0.3979171472410088
1.494432101108612 13.067568257431077 366.51703639243226 57.442923961477284 0.40468984492094046
1.5206442751836475 13.060422644814325 328.8218479474057 60.10807853817341 0.41166530646204846
1.5466277380011215 13.051937169423171 295.2840970756105 62.90523936451466 0.41885407090175125
1.5723440037262195 13.042054865611977 265.4627766752973 65.84203231577334 0.426267509018675
1.597767922885619 13.030726977703695 238.91119732747808 68.92665136741566 0.43391789189964114
1.6228552144691688 13.017905790038894 215.22795402111285 72.16791055625505 0.4418184654653711
1.6476068941464002 13.00356737543602 194.0911001732455 75.57530101657142 0.4499835316577863
1.6719567837735256 12.987632791475033 175.2341560861197 79.15875076001794 0.4584272722786885
1.6958932020471027 12.970084097924207 158.3549796470091 82.92846965958051 0.46716303594872266
1.7193734473356561 12.950873297103605 143.27466139824287 86.89718572191939 0.4762123337053971
1.7423551962899773 12.929931661542735 129.77455913558723 91.07647329415273 0.4855894945707824
1.7648374461656056 12.907287105595715 117.67154076211295 95.48042766390694 0.4953164628676144
1.7867649989365197 12.882853183951621 106.81811080410212 100.12271174958505 0.5054107408839288
1.8081040598016456 12.856596375427245 97.08376169218849 105.01985325559329 0.5158980393965437
1.828814054239893 12.828462769809695 88.32721805096782 110.18839289347486 0.526800895251275
1.8488937302619344 12.798497238580076 80.4589414121682 115.64597027775834 0.5381427145342592
1.8682709312853905 12.766558037949222 73.38609773101714 121.41277795605687 0.5499527702332765
1.886949559654853 12.732739838546063 67.00575849579124 127.51024606965558 0.5622608892722507
1.9048738524149262 12.696924534374915 61.255048091492675 133.96080311732996 0.5750963272855417
1.9220151358037987 12.659109669565035 56.072674124527424 140.79014587802246 0.588495430959548
1.9383285390726628 12.619221960477004 51.390588145523424 148.02595035440646 0.6024964620160429
1.9538259185377527 12.577380144548764 47.160564241267615 155.6967196294863 0.617135200668358
1.9684426280797531 12.533451185932876 43.33738484659993 163.8360936564025 0.6324592246959371
1.9821576815868025 12.487453442256419 39.87797302726697 172.47784871175526 0.6485101072060506
1.9949473885872866 12.439380308518794 36.74320383940369 181.66126907702844 0.6653409994666525
2.0067847634390046 12.389220650113083 33.90267471727825 191.42835935506736 0.6830063274621031
2.0176324736825015 12.336947986173634 31.327229085082624 201.825152305969 0.701565322811334
2.027470525707322 12.28256424100482 28.991318550877423 212.90158920573953 0.7210806373382068
2.0362801805944097 12.226100980962455 26.86896712811451 224.7131662345543 0.7416226359225033
2.044025294382941 12.167508250984675 24.941832883077918 237.32103258279116 0.7632684076891247
2.0506851668692705 12.106804663912833 23.187264070129576 250.79205833204352 0.7861005649510886
2.056259088300309 12.044059995580861 21.59259378881741 265.19937178129675 0.8102073635739807
2.0607064815960143 11.979215994953385 20.141547412660987 280.624639123501 0.8356882573404448
2.064012883683778 11.912318122631266 18.820403655433918 297.15765230019485 0.8626504207254027
2.0661752089994763 11.843420191897405 17.618303215861495 314.89878192335044 0.891214320812839
2.0671689922048024 11.772532058060012 16.52352127730474 333.9574066649529 0.9215057306361054
