M[M_sun], R[km], Lambda[1], P_c[MeV/fm^3], rho_c[fm^-3]
0.24162668629717493 15.618656898711224 2160425.4255784233 3.5677272577965504 0.1711233750220791
0.25364533423652014 15.277240175609133 1723113.5963981817 3.784848615009826 0.1738885346364006
0.2660427745237458 14.981215700238048 1382973.1442184902 4.011462469407058 0.17666739808894324
0.2788197834185854 14.7234386942473 1116438.7662978105 4.24782401167359 0.17945862532014986
0.2919765371113575 14.49829962536423 905774.5267578441 4.494558822220556 0.1822687897726557
0.30551364569524386 14.301126399274144 738540.8882995943 4.751823946083593 0.18509362589853046
0.3194317059613847 14.12802780813136 605006.1748725919 5.02029937253159 0.1879397019539164
0.3337324794244134 13.975813266987243 497600.1619791931 5.300212271378892 0.19080370176949518
0.3484155183202268 13.841904838029697 410935.380074684 5.592287756556581 0.19369185088045301
0.36348122509170827 13.723843029619536 340608.46218578547 5.896697560219261 0.19659929435137613
0.3789358011057808 13.619896854386527 283241.1831349592 6.214303992614422 0.19953367541748726
0.3947713160574747 13.528337605349268 236345.65116879006 6.545360589622062 0.20249110311549756
0.41099851576552066 13.447782657912091 197817.49835311537 6.890577596990156 0.20547542085250195
0.42761013953748545 13.37693294282683 166038.64539958618 7.250656820970534 0.2084896404120805
0.44460790684873447 13.314817220881338 139763.33645214487 7.6258518029770554 0.21152922098556046
0.4619894648408743 13.260470249244612 117937.24530476761 8.01712249564819 0.21460049284561522
0.4797588566671113 13.213071095893612 99774.63528577266 8.425169179790869 0.21770502350039786
0.49791848264772093 13.171906385403977 84612.33221555418 8.850425510039756 0.22084017555030494
0.5164611385873747 13.136319791581387 71915.45969105228 9.293779325290462 0.22400956096170907
0.5353823224341369 13.105769502388867 61253.23682809545 9.756109075186048 0.22721600175074702
0.5546913322539817 13.079753012899923 52283.38842402665 10.238219633511926 0.23046078362224742
0.5743778877080932 13.057811852100821 44712.214092891634 10.740587009864933 0.23374066509428953
0.5944391518692567 13.039472921092795 38314.828938467836 11.264461801685833 0.23706190196053453
0.614878027592655 13.024468765079531 32888.50782329422 11.810777259196367 0.24042604794648068
0.6356856658835386 13.012419158221233 28279.813681364278 12.380512922252839 0.24383473696204971
0.6568600075981774 13.003004847750576 24360.070897573194 12.97434361101947 0.24728575734167682
0.6783948902611799 12.995961606315504 21018.441182469982 13.593624822210108 0.25078421325825656
0.7002877775675211 12.99105000068261 18163.629949027 14.239541350957984 0.25433258825826305
0.7225260788850376 12.987987251110148 15721.281043263276 14.913283582871506 0.2579328682960121
0.7451172371760962 12.986650683365394 13627.364098042915 15.61586138863664 0.2615847483144032
0.7680411229980988 12.986754808815347 11829.598288504434 16.348581125515995 0.2652905214372671
0.7912907567319716 12.988145506717297 10284.591318940771 17.113040658442348 0.2690546862569965
0.8148675765725851 12.990680592654249 8951.417827345293 17.910695952222547 0.2728796771624821
0.8387557142041722 12.994149878415865 7803.486424041805 18.742883855223354 0.2767663164222106
0.8629394686312797 12.998417095497546 6810.156856992811 19.611006668890912 0.280715597900621
0.8874242208221339 13.003374850001306 5951.867942968519 20.517123853957266 0.2847336339717923
0.9121845549482239 13.008874113556114 5208.268089091358 21.463030753302423 0.2888234403973876
0.9372086550121589 13.014769852659985 4562.935670678911 22.450175137440418 0.2929846420962376
0.962496050166455 13.020973659234913 4002.1215874126633 23.480656556960437 0.2972216283763398
0.9880211268237792 13.027365775004743 3514.37227789423 24.556863587476606 0.3015402145223424
1.013767437379197 13.033816284355588 3090.2338209152113 25.68069530319696 0.30594170596066433
1.039735583798097 13.04028519797383 2719.725295412854 26.85420141147795 0.3104280121680999
1.0658902786541742 13.046608461704942 2396.6752909792117 28.080438495025458 0.3150075547787507
1.0922260620556783 13.052738018756349 2114.413468426238 29.361409706060023 0.3196804170079244
1.1187278360749304 13.058568110052981 1867.1641074582615 30.699977197731194 0.32445200685181785
1.1453633947039314 13.064021378752226 1650.9075477063657 32.09943343858358 0.3293296513423502
1.1721298879123943 13.06902900856228 1461.0572965034976 33.56183547929391 0.33431179632401203
1.1989892251473881 13.07349242971153 1294.5375687195747 35.09167333195855 0.3394116488088526
1.2259398850241587 13.07735433958684 1148.2699739658278 36.690904156197014 0.34462556090427726
1.2529382781444236 13.080517273485473 1019.4596277914254 38.36464616260954 0.34996837346151805
1.2799836673700162 13.082951138952401 906.0562655120108 40.11521495987174 0.3554370898474825
1.307037283742863 13.08455302147997 806.1855186667108 41.94794255753073 0.3610454499411985
1.3340705676698255 13.085240703278616 718.0260381510166 43.86646277285695 0.36679621910821975
1.3610818041607935 13.08502851586738 640.1575859892663 45.875317173088426 0.37269632501163735
1.3880233087706584 13.083781819380059 571.3598946062923 47.97991672607094 0.3787561452178892
1.4148671808941549 13.081451429303701 510.4428433856104 50.18510939619292 0.3849817835365828
1.4416008907161013 13.07800608203477 456.52860623593637 52.49594877894551 0.39137933643816686
1.4681964699714307 13.073401791601006 408.7099977094998 54.91893966124038 0.39796094092892437
1.4946081034342338 13.067524343328598 366.2522078531696 57.46027706608021 0.40473566667781213
1.5208210293421534 13.060370751824122 328.6035305082527 60.1265945871829 0.41171329415128627
1.5468058153056452 13.051871646708298 295.06745229767677 62.925003874275205 0.41890437315044005
1.5725237706947661 13.041979798951138 265.2592352416861 65.86313789957929 0.4263202861291255
1.5979368725033316 13.03063594589333 238.7290288695058 68.94919838945141 0.433973316852664
1.6230461033891401 13.017819613177531 215.05360329039195 72.19200785287275 0.4418767250253019
1.6477877386340627 13.003455177721726 193.93454220106238 75.60106669262142 0.4500448275905061
1.672136672059644 12.987509663746495 175.10459241003667 79.18617849942348 0.45849126088092795
1.6960730199420089 12.969946889793304 158.23737481869924 82.95782711825959 0.4672304993032644
1.719552003120076 12.95071878271227 143.16045532365627 86.9286240556202 0.476283526063275
1.7425352581507867 12.929768841905124 129.68026658654648 91.11000558767225 0.48566409158106977
1.765014041240946 12.907099323057112 117.57838897307141 95.51637701599854 0.49539534377320366
1.78692559527129 12.882618760146796 106.73664537351229 100.16110946454441 0.5054936014869734
1.808275394359207 12.856374501592125 97.005152363572 105.06089848509413 0.5159851990274229
1.8289795233761512 12.828217190628184 88.26014063842396 110.23230286612825 0.5268926993236998
1.849059745517596 12.798235498244557 80.40333652998682 115.69316158115059 0.5382401954826008
1.8684319100199083 12.766278922029525 73.32501083381855 121.46333646514968 0.5500556888301628
1.8871076480062907 12.732437254402871 66.95555310346303 127.56427083987191 0.5623690272060875
1.9050258351506997 12.696603778340837 61.2071867570101 134.01877522470653 0.5752107822256827
1.9221635606867093 12.65876566462934 56.02937155177546 140.85241274129967 0.5886167504881035
1.9384719552286525 12.61885635742845 51.34979180037577 148.092884942728 0.6026252140268828
1.9539624617966067 12.576990926633187 47.12610641886448 155.76851106425192 0.6172712526236628
1.9685713730732248 12.533036069546972 43.30544435404284 163.91317708766692 0.632603217186147
1.9822816247675439 12.487015468650931 39.84700132758914 172.56093406659537 0.6486635152293981
1.9950630600133585 12.438912814615914 36.71689925060931 181.7506576054162 0.6655038219105529
2.006893015966858 12.388730759396815 33.87592433510916 191.52463167105358 0.6831793973591643
2.017732635925146 12.336432387911701 31.30330750771907 201.92894890329163 0.7017495515328916
2.027561010323893 12.282027847879384 28.96877366617894 213.01335556603368 0.7212761658987725
2.036361786126965 12.225533292387222 26.84858990541545 224.83393712834675 0.7418313912875708
2.044098274042866 12.166913746849113 24.923696749665233 237.45139650295874 0.7634906901484442
2.0507473155262548 12.106179968889776 23.17018074363478 250.93295736051886 0.7863376443489131
2.056310562907834 12.043406205553307 21.57768637534229 265.3519877278534 0.8104610806537398
2.0607463018512804 11.978530315878494 20.126653024678507 280.78985981785456 0.8359592577339645
2.06404119675921 11.911606909603329 18.8079469861539 297.3369064537833 0.8629408445731751
