M[M_sun], R[km], Lambda[1], P_c[MeV/fm^3], rho_c[fm^-3]
0.24162668629717493 15.618656898711224 2160425.4255784233 3.5677272577965504 0.1711233750220791
0.2536445081874275 15.277250533913724 1723061.1929992284 3.784830394911395 0.17388830753166334
0.26604039355767367 14.981267384903667 1383009.376043051 4.011424166795636 0.17666693522448887
0.27881692859048524 14.723477037202686 1116378.8896658956 4.247764330374437 0.1794579331070175
0.29197160900733987 14.498383726426257 905820.8878001621 4.494476195801711 0.18226786970830527
0.3055084422700556 14.301172714865748 738618.87269593 4.751715568592115 0.18509245521478093
0.3194247627901284 14.128109021504986 605065.8123639404 5.020164445266526 0.18793830203146425
0.3337251399666176 13.975943917363333 497664.79062143556 5.300047241604586 0.19080204019350183
0.3484057161759344 13.84198786194319 410982.1532812957 5.592092211859951 0.19368995893172064
0.363467776904618 13.723970538824684 340649.80855555256 5.896467106862557 0.19659712988468087
0.37892340173374706 13.619988167763935 283275.9832852154 6.214035841251876 0.1995312301999361
0.3947566402596677 13.528408403026232 236399.9770505721 6.545055018290688 0.20248842366772804
0.4109823045989284 13.447829767921325 197848.221860194 6.890228705932322 0.20547244954984697
0.42759115590354396 13.377052326788453 166070.1123803559 7.250261335600632 0.20848636866296955
0.4445870069025782 13.31491583918982 139786.53854093986 7.625410816032003 0.21152571044592416
0.4619695094194886 13.260547882195413 117970.64141027421 8.016628314316655 0.21459666995348736
0.47973568920393617 13.213124292389619 99795.9773746314 8.42461794976367 0.21770087902119878
0.49789307909539327 13.171963851283204 84635.18113857594 8.849819263504823 0.2208357860663628
0.5164327177075554 13.136382952135557 71930.78609110779 9.293108250048512 0.2240048365501691
0.5353523047875743 13.105826183151681 61269.17784425944 9.755368620264973 0.22721093220441171
0.5546594675208003 13.079809654741487 52298.68532707832 10.23741009576204 0.23045542417945517
0.5743437492446707 13.057827344735552 44322.25979431223 10.739701680051963 0.23373498100264942
0.5944012953246539 13.03950602034429 38322.023779076495 11.263492488349842 0.23705584567327026
0.6148388114636155 13.024492155161008 32897.244105286496 11.809718234931916 0.24041960731200984
0.6356461275997948 13.01242918992587 28288.930075498414 12.379358102286652 0.24382789918733885
0.6568164744782387 13.003009504956578 24367.704616128165 12.973098298544304 0.24727863964623317
0.6783488885832544 12.995978204419872 21024.662885588485 13.59227133098875 0.250776677381758
0.7002382675584921 12.991063686870199 18169.978737989168 14.238072422281943 0.25432461924850447
0.7224744515126659 12.987989300316848 15726.340566019346 14.911691491583712 0.25792445030923017
0.7450628617061944 12.986639276248749 13631.934915230833 15.614153449232862 0.2615760184610921
0.7679843153220072 12.986752042677224 11834.107055373148 16.346734205405696 0.26528131500374086
0.7912306487045339 12.988145132138756 10287.213147050028 17.111045486343375 0.2690449844107012
0.8148057179388507 12.990675594701019 8954.951540856371 17.908542642096094 0.2728694598599012
0.838690235261038 12.994141659995169 7806.561812794936 18.74058195861037 0.27675574039830725
0.8628712520154896 12.998415326496986 6813.002384750165 19.608526250679592 0.28070446982842473
0.8873542951025444 13.00336771136908 5954.3426896372375 20.51445297336036 0.28472192975889005
0.9121107363993901 13.008851139708126 5210.210972474177 21.460156651746658 0.28881113432682826
0.9371324913657851 13.014742232333651 4564.40496565956 22.447109788614956 0.2929719103823616
0.9624171165850474 13.020956286941821 4003.8381655026997 23.47736148626166 0.29720824611517116
0.9879376298098288 13.027347913853532 3515.800137774245 24.553323281875066 0.30152615056884946
1.0136824755801135 13.033796203989404 3091.52368716721 25.676923468370106 0.30592714972365315
1.0396471644537397 13.040256616795663 2720.7858387301562 26.85015192761834 0.310412713947267
1.0657995765024388 13.046584710544472 2397.6771561686996 28.076092402374588 0.3149914766922092
1.092143975596519 13.052697760346788 2113.769765417779 29.356782410004953 0.3196637615833004
1.1186321149359342 13.058548269252114 1868.0440396218842 30.695013442574975 0.32443449688386095
1.1452640381579506 13.064007789483826 1651.7955232812762 32.094149427319344 0.32931149600010046
1.1720279537234137 13.069018145241609 1461.7614538165742 33.556169219002825 0.33429270044261516
1.1988862686384265 13.07347180808036 1295.138399523015 35.08559807297402 0.3393915595743972
1.2258327131330307 13.077339722522012 1148.830960127586 36.68443753122128 0.34460470057311754
1.252828656943559 13.080496618480607 1019.9414915713802 38.357761923181556 0.3499466956515276
1.279872512100115 13.0829370564806 906.5093180133308 40.10783484314058 0.355414258231854
1.3069169701428125 13.084518545663077 806.6005627939077 41.940084219501955 0.3610216929948045
1.3339550072005666 13.085235085952897 718.4157974830214 43.85803808968108 0.3667711765928958
1.3609640504993057 13.085031284209125 640.4721089056394 45.86634380046005 0.3726702316629746
1.3878957716620626 13.083773923305188 571.6663695987909 47.97035632795038 0.37872893323867446
1.4147456107919456 13.081464023158773 510.7147508053288 50.17485711621501 0.38495305551826003
1.4414777973579438 13.078025867769165 456.78042485640805 52.4850208954763 0.3913493325644845
1.4680735922428652 13.073420907104394 408.92161967405417 54.90728777611435 0.397929576149711
1.494481929171627 13.067558368716162 366.4450345254389 57.44784886028939 0.40470284936718504
1.5206945976530084 13.060405788991057 328.75990750080604 60.11333346978067 0.4116789255675502
1.5466782450392011 13.051917463986477 295.21381189442445 62.910848596241415 0.41886834684244956
1.5723944037326976 13.042034208701644 265.40314167932667 65.8480221287447 0.42628248728336904
1.5978082056064333 13.030695982285188 238.861234001266 68.93305024210387 0.43393362157464793
1.622906161157733 13.017876954157854 215.17865460660036 72.17474937713041 0.4418349995480512
1.647657950465048 13.003535598884465 194.05227746157428 75.58261329804674 0.4500009274021274
1.672006437819723 12.987597528944573 175.18552105435163 79.16653471029196 0.4584454321456236
1.6959445471814814 12.970044695121226 158.32909997304785 82.936801230059 0.46718218187341676
1.719424484565182 12.95082915846114 143.2438341746657 86.90610780512671 0.47623253783411323
1.7424030779683273 12.929874817830433 129.75475131831632 91.08598960369619 0.48561066485668897
1.7648906089352956 12.907233361027473 117.65210131678501 95.49062988234886 0.4953388488129207
1.7868152767916365 12.882792497084365 106.79936153949414 100.1336087605513 0.5054342561608405
1.8081526015040243 12.856532910319519 97.06131312950271 105.03150157046393 0.5159227746175873
1.8288618879902834 12.828392564332672 88.30681667131321 110.20085415277259 0.5268269484296749
1.8489410813008367 12.79842083449965 80.44481225832884 115.65936268959935 0.5381703786357568
1.8683168757074484 12.76647882577387 73.36952664427953 121.42712588869071 0.5499819773661883
1.8869946064384158 12.732654646550392 66.9910644098144 127.52558293559541 0.5622915964287445
1.9049165873449323 12.696834136327823 61.24265332166537 133.97725481455544 0.5751288080440714
1.9220568688229749 12.659011950578018 56.06065104659312 140.80781628998744 0.588529859641774
1.9383693853594 12.619119896835059 51.379416878741544 148.04494531016556 0.6025329997585035
1.9538644119459718 12.577271253851041 47.15076351776085 155.71709279349236 0.617173809853532
1.9684809263708607 12.53333392770357 43.32997114011484 163.8579685007504 0.6325000870869716
1.982192716201692 12.487326971399387 39.86917970426604 172.50142667095363 0.6485536413297497
1.9949805085940227 12.439247664432559 36.7351616018217 181.6866356300805 0.665387204994764
2.0068154646801806 12.389081653299982 33.8945126928733 191.45567924507404 0.6830554407560209
2.0176605811333155 12.336801639231002 31.31989953486216 201.8546072648101 0.7016176024577849
2.027495047797584 12.28241246325196 28.98413564661821 212.93330563570683 0.7211361233349008
2.036303111362882 12.225940475173198 26.863413600241277 224.7474377314804 0.7416818750208287
2.044045813078527 12.167339202872821 24.935796271061548 237.35802612390253 0.7633314850750043
2.0507030451218338 12.106626601256215 23.18192369900101 250.83204121388027 0.7861678409121204
2.0562740184779926 12.043873993669164 21.58857330888581 265.2427228694162 0.8102795023032565
2.0607181374329886 11.979019589821561 20.137117594002742 280.671523207905 0.8357651581510425
2.06402141366124 11.91211864701202 18.817245064264355 297.2085182923093 0.8627328327468533
2.066180145163671 11.843210105171982 17.615048014773674 314.9540383245176 0.8913027754430101
2.06716992358526 11.77231173783956 16.520177846809016 334.01741795708637 0.9216005136783622
