M[M_sun], R[km], Lambda[1], P_c[MeV/fm^3], rho_c[fm^-3]
0.24162668629717493 15.618656898711224 2160425.4255784233 3.5677272577965504 0.1711233750220791
0.25363814539608837 15.277440397434493 1723258.6208972107 3.7847260806299823 0.1738870073044684
0.26602916464311854 14.981501625026649 1383286.4820928504 4.011204880514893 0.1766642852792
0.2787972903449613 14.723880560962698 1116725.516598847 4.247422656548614 0.17945397020552942
0.29194668975345034 14.498775179687973 906204.1152059528 4.494003172012406 0.18226260247862827
0.3054767323116247 14.301577976437816 738957.0666912813 4.751095137396919 0.18508575337376207
0.31938490466349395 14.12856801672079 605352.066302707 5.019392039964343 0.18793028802833303
0.3336759376150033 13.976413732868956 497997.6860172274 5.2991025315169855 0.1907925285304772
0.3483491331602473 13.842414541446425 411236.5496310857 5.590972841933751 0.1936791287197566
0.36340507242245035 13.724398805996563 340891.24638857483 5.895147934447287 0.19658473993818998
0.3788504174600902 13.620404177579925 283521.82643699786 6.21250090787915 0.19951723345575692
0.39467311660566184 13.528871282310918 236611.8743141025 6.54330592124977 0.20247308644959355
0.41088931709129617 13.448264903400236 198039.2901117412 6.888231686404747 0.20545544209353342
0.42748796137587414 13.37742595628228 166245.21576881353 7.247997660349045 0.2084676418577434
0.44447412199843145 13.315273047772273 139945.89406340875 7.62288674496536 0.2115056172172613
0.46184499102004006 13.260897378662605 118110.34948567589 8.013799831447312 0.2145747893517628
0.4795999246121755 13.213466175055828 99930.55431582619 8.421463006920032 0.21767715826154382
0.4977466434016053 13.172258260359262 84741.93932244446 8.846349496193431 0.22081066346851083
0.516274153602253 13.136654826257063 72033.23866061153 9.289267519639647 0.22397779756864905
0.5351784037887407 13.106091407381822 61358.766564927595 9.751130895141438 0.2271819184950574
0.554476519441997 13.080033403597222 52373.58781544223 10.232747762940175 0.23042437486164347
0.574146118804652 13.057999587631304 44793.242134179534 10.734634998723022 0.23370245133905615
0.594194781037098 13.039708489443171 38384.16862331148 11.257945281768178 0.23702118662616412
0.6146160870847726 13.024634158046528 32950.89783522415 11.80365774515131 0.24038274942243984
0.6354049883198186 13.012562626455649 28336.646353523807 12.37274952819952 0.24378876932979313
0.6565599104006541 13.003094702122597 24410.506871466714 12.96597198695569 0.24723790857147426
0.678082674291175 12.996045596746582 21063.178466700618 13.584526113514118 0.25073355408592723
0.6999559299641542 12.991119172267885 18202.957783445858 14.22966678626934 0.2542790182628989
0.7221766000427754 12.988030060580945 15756.109306030401 14.90258125777964 0.2578762810689794
0.7447514219446965 12.986653713396342 13658.19692203573 15.60438046639139 0.2615260654554822
0.7676580516985142 12.986743816595503 11857.236046565005 16.336166164807914 0.265228635971917
0.7908872397234431 12.98812318247451 10308.170782635996 17.099629370023486 0.26898947170285886
0.8144473077852362 12.9906246637027 8973.853980063881 17.896221917929672 0.2728109989047055
0.8383153939826592 12.994082609227481 7822.141516759911 18.72741126566357 0.27669522787891626
0.8624819295697523 12.998337766056046 6828.185545317475 19.594334390977956 0.28064079990428104
0.8869424054771378 13.003279195389153 5967.695088149143 20.49917166945022 0.2846549647157522
0.9116888310169683 13.00876233580995 5221.986037920914 21.443712951859695 0.2887407271657938
0.9366944729824113 13.01463623713482 4575.273115886909 22.42957217755667 0.29289906913042696
0.9619560281946895 13.02082935176303 4013.0842281784753 23.45850995322076 0.29713168443815585
0.9874673643325833 13.027230575152094 3524.260821245432 24.533069131612052 0.3014456904449511
1.0131958079554497 13.033685079353518 3098.6771769691936 25.655345083733316 0.30584387458157747
1.0391430023730868 13.040137747032785 2727.62831637431 26.826985602227538 0.31032519574149026
1.0652831043628674 13.046469864617679 2403.6854821749685 28.05122974225966 0.3148994989013309
1.0915965867742594 13.052588016374505 2120.614364137719 29.3303115095281 0.3195684825947994
1.1180809274919146 13.058431103928397 1872.8762573617353 30.66661838512706 0.3243343314787596
1.1446982273005166 13.063887288493717 1656.0347272780618 32.06382256285158 0.3292069916348779
1.1714472174598096 13.068908330845762 1465.6047111203618 33.52375673081901 0.33418346701556834
1.1982933220751604 13.073391374467796 1298.6549178764628 35.050846752053026 0.3392766463772159
1.2252216176603299 13.077257728157957 1151.8828129587234 36.647448191363175 0.34448537868856205
1.2522051845985853 13.080436265781925 1022.7347699620698 38.31814123039769 0.34982127251872946
1.2792347076892856 13.082892850839157 909.0017171858902 40.06562198710278 0.3552836657576771
1.3062664935764425 13.08449585514643 805.4280994776356 41.89513685380227 0.36088581029879835
1.3332907071421913 13.085227148264128 720.4382514078907 43.80985250109613 0.36662794410387
1.3602898369865901 13.085047169806712 642.3725576321013 45.81502091671614 0.37252099168873404
1.3872112148118187 13.083815680174359 573.3160382121279 47.91567702986606 0.378573298305465
1.414050592869078 13.081534800773468 512.2044643132828 50.11622210576849 0.3847887537572772
1.4407794306602437 13.078145314208841 458.0888966034179 52.422523217027816 0.3911777373553216
1.4673590186723235 13.073563762829313 410.11969616671536 54.84065082361605 0.3977502014579801
1.4937623924466619 13.06773212671697 367.53647898866166 57.37677362847307 0.4045151715961804
1.5199675887058306 13.060629263306565 329.7323019398746 60.037496549314035 0.4114823804746829
1.5459468499058222 13.052175672805483 296.12147759873835 62.82989996890292 0.41866232615017185
1.5716593563623127 13.042338148920376 266.21024938398807 65.76158274035016 0.42606633495180996
1.5970747899042592 13.031046281423837 239.5866890498046 68.84070932821389 0.43370662969934287
1.622167441552293 13.018275761711207 215.83964612702243 72.0760615134974 0.4415964038417783
1.6469167970918743 13.003990036867668 194.65224601075738 75.47709514428652 0.44974990221493427
1.671273474556029 12.988112211809064 175.7404930666745 79.05400247456065 0.45818250919983294
1.6951953249909468 12.970603247713491 158.835655008624 82.81657880619004 0.4669059110935104
1.7186900916101617 12.951465278860605 143.6961260083649 86.77736706114354 0.47594100339064255
1.7416883163577501 12.93060662902033 130.16381656930986 90.94867693956513 0.48530519472197214
1.7641705095205151 12.908010379907145 118.0281421766043 95.343423265851 0.49501584462668413
1.7861009577517852 12.883632781982145 107.14092228327185 99.97638003779997 0.5050949633983182
1.8074472964608874 12.857441210670942 97.36990484165551 104.8634358610647 0.5155658867313986
1.8281790302462528 12.829403400498315 88.59261519513255 110.02051168576389 0.5264490010973761
1.8482609811507313 12.799486019637472 80.69828253336557 115.46614107927431 0.537771249464477
1.8676613246498652 12.767654909861422 73.60053453458633 121.220122766921 0.5495605948684463
1.8863394377484182 12.733862493308921 67.20290104018095 127.30368392235032 0.5618463206907974
1.9042862629605748 12.698151580944751 61.43593028856884 133.73990991211411 0.5746602155117142
1.9214377883983444 12.660390971523874 56.23944490141665 140.55289530998087 0.5880331766311718
1.9377833276598904 12.620618461855216 51.54529046252732 147.77092259609293 0.6020059034345047
1.9533038009727681 12.578871806556265 47.30203415369881 155.42319457275528 0.6166168433056085
1.9679494896293157 12.535047862464783 43.46660612978835 163.54172581831443 0.6319082974142999
1.981689445551711 12.48913453915267 39.99270289077619 172.16131402503225 0.6479256605162033
1.9945197111582962 12.441181524367774 36.85083552003788 181.3207317273733 0.6647207059624379
2.0063655323233975 12.391072086679475 34.00211454369175 191.06160946883872 0.6823470167931265
2.0172566508482594 12.338933371325476 31.420515790529166 201.42975223219756 0.7008635266833908
2.0271174616513195 12.2846228797411 29.075212646734787 212.47560271987146 0.7203350319593842
2.0359539348014986 12.228233685893198 26.944695673946395 224.25313681304635 0.7408274641156796
2.0437481918335956 12.16978627742379 25.01114101623555 236.82445401588137 0.7624216553022442
2.0504549831056584 12.109209606324752 23.251814258659877 250.25441648023238 0.7851943728053244
2.0560562903841406 12.04652836448246 21.65201537197227 264.6175226315496 0.8092391327840783
2.0605520866731646 11.981814518153335 20.196868044033735 279.9945899356648 0.8346535275518039
2.0639063803046933 11.915045079082716 18.870720142666304 296.47498585010567 0.8615443787553225
2.0661097447245247 11.846240625730928 17.664760622128988 314.157219755662 0.8900272256364228
2.067150158495633 11.77546660577729 16.565520755735598 333.1520613992283 0.9202337521194194
