M[M_sun], R[km], Lambda[1], P_c[MeV/fm^3], rho_c[fm^-3]
0.24162668629717493 15.618656898711224 2160425.4255784233 3.5677272577965504 0.1711233750220791
0.25364480320200755 15.277271060761397 1723198.7662926847 3.7848349457230057 0.1738883642553347
0.2660408449840022 14.981249895411862 1383018.9813339228 4.011433733567338 0.17666705083327897
0.27881771748573564 14.723477514459038 1116365.3904441257 4.247779236824136 0.17945810599937045
0.2919728903784716 14.498353285368164 888664.7284696333 4.494496833147127 0.18226809950993617
0.3055094991851763 14.301161227369578 738617.6069184149 4.751742637637202 0.18509274761212993
0.3194271832950386 14.12806077773407 605045.1057310435 5.020198145472401 0.18793865168410728
0.3337274444433726 13.975852127667583 497640.10390864214 5.300088460287163 0.19080245519724123
0.3484081666723311 13.841967148270017 410969.2513003031 5.5921410519974035 0.19369043147348594
0.36347222414833835 13.723917048490279 340635.8464344476 5.896524665812431 0.19659767049051885
0.3789263690720796 13.619943254154379 283279.27270868374 6.21410281565123 0.19953184092581577
0.3947603091335919 13.528393542812472 236389.520597782 6.545131338667958 0.20248909289433292
0.4109863478378638 13.44781409020175 197836.06918583778 6.890315845771865 0.20547319166928732
0.4275955231615404 13.377006492964151 166058.0818071107 7.250360112720994 0.2084871858207719
0.4445913362539274 13.314898666437845 139785.21459495786 7.6255209574834 0.211526587242698
0.46197505078637596 13.26054770501612 117965.14364945292 8.016751741391023 0.2145976247616941
0.4797404604726374 13.213122177339097 99795.47936171862 8.424755625056306 0.21770191414693288
0.49789895285992125 13.171949005811975 84626.16232213177 8.849970679434936 0.22083688238239188
0.5164388981736553 13.136375483377055 71927.94021156387 9.293275857209736 0.22400601651503319
0.535359572312281 13.105812171303809 61266.69282156892 9.755553555232362 0.22721219836709025
0.5546674243000513 13.079791606731037 52294.12827547856 10.237613564180567 0.23045677919974927
0.5743522273174018 13.057826538969895 44721.24431749405 10.739922797876607 0.23373640064757736
0.594409080058579 13.039513940846367 38320.48073569013 11.263734581175987 0.237057358273629
0.6148488925056057 13.024483609300644 32895.0748379575 11.809982733127017 0.24042121590234156
0.6356554916010742 13.01241466032941 28285.952432897644 12.379646525463503 0.24382960696237083
0.6568272834570338 13.003008725037851 24365.789045272875 12.973409322204951 0.24728041732993616
0.6783602634012689 12.995983288571347 21023.622082671933 13.592609372167583 0.25077855950447514
0.700251035287854 12.991043834702753 18168.36342215897 14.23843929375787 0.2543266095441665
0.7224854967879145 12.98801756607279 15725.329842448724 14.912089122620777 0.2579265527344113
0.7450763907491802 12.986639232197515 13630.706240225596 15.614580013036855 0.26157819877230715
0.7679990797303866 12.986762689771473 11833.4915033533 16.34719547913878 0.26528361433760883
0.7912466466061596 12.988146152611678 10217.63131233553 17.111543785379084 0.2690474074701736
0.8148217397123984 12.990674418767675 8953.907738279793 17.909080435328242 0.27287201165033365
0.8387063642412605 12.994130204319116 7805.390736582393 18.741156860584898 0.2767583817754179
0.8628902022520805 12.998403568981693 6812.343375485093 19.60914573733967 0.2807072490743787
0.8873709024670167 13.00336352484064 5953.684490458827 20.515120026721327 0.2847248528901461
0.9121243749216916 13.008872220279454 5209.494696623644 21.460874458043783 0.2888142077655252
0.9371513411048531 13.014754822227031 4564.020332349483 22.447875357522427 0.29297509011975437
0.962436995230105 13.020958710764525 4003.5021248122757 23.478184426242425 0.29721158831895234
0.9879578286238324 13.027356812793249 3515.486198722445 24.55420746701275 0.3015296630166591
1.0137028373125294 13.033804910000525 3090.8580204726873 25.67786547583002 0.30593078511186134
1.0396693911734831 13.040260536940957 2720.632883435894 26.851163275031176 0.3104165346356798
1.0658228437328428 13.04658388820042 2397.4835962289294 28.07717782454068 0.3149954921407793
1.0921553069141132 13.052717313026378 2114.9096527703337 29.35793805965127 0.31966792121245463
1.1186554473621808 13.05855288449076 1867.7922763343608 30.696253118730063 0.3244388699218271
1.1452900354158961 13.064004438238403 1651.585017808989 32.09546908355039 0.32931603020892947
1.1720544083982696 13.069018735470921 1461.5887088592247 33.557584336726336 0.33429746953524814
1.1989111998404418 13.073473337746066 1295.0199598071388 35.08711533226123 0.3393965767395301
1.2258592825318084 13.077338503590353 1148.6864486267839 36.686052528643344 0.3446099103048049
1.2528564827425368 13.08049626055704 1019.7787620255801 38.359481213676375 0.34995210953247335
1.2799004010665058 13.082943866978235 906.4210352290683 40.109677970930264 0.3554199602534861
1.3069444798723222 13.084523991251531 806.5297256111411 41.94204677538935 0.361027626098578
1.3339833811211503 13.085237085080006 718.3372530883481 43.860142080275594 0.3667774307410465
1.3609928462209053 13.08503196721932 640.3873479297533 45.86858481667645 0.37267674823371283
1.3879263584535833 13.083766166359933 571.5964443909013 47.9727439431631 0.3787357291623088
1.4147770167713807 13.08146081582899 510.65161949523383 50.17741751525667 0.3849602300385366
1.4415079773225161 13.078022767611486 456.711356466232 52.48775001326489 0.39135682569941993
1.4681035022904068 13.073417060430327 408.85981028585877 54.910197698638775 0.39793740913780856
1.494515872302519 13.067546335007018 366.39428360388507 57.45095265260632 0.40471104508894096
1.5207257757729813 13.060397849525861 328.7296783622727 60.11664526368142 0.4116875086803108
1.5467102941270323 13.05190651133572 295.181417751137 62.9143836866679 0.41887734392863707
1.572426523020892 13.042021052557557 265.3633958958904 65.85179707992796 0.42629192701350754
1.597840173654869 13.030682981795946 238.82109657832504 68.93708300451814 0.43394353488679216
1.6229380855635531 13.017860292147583 215.15410724225453 72.17905941649026 0.44184541984541376
1.6476905392631758 13.003515068149555 194.0240561541939 75.58722173772648 0.4500118907709132
1.6720390943320786 12.987577024699888 175.1630261710995 79.17144042075567 0.4584568771120105
1.6959762540875802 12.970017894064943 158.30882218767076 82.94205208210504 0.46719424831612555
1.7194564761665907 12.950801608784591 143.22422011699115 86.91173083321932 0.47624527122616056
1.742432644013311 12.929826461777582 129.73579941445243 91.09198714821115 0.485624007185618
1.7649201820345124 12.90719818641648 117.63331173910717 95.49705972979366 0.49535295733392976
1.7868464096554852 12.882758706642514 106.78421192944568 100.14047650988668 0.5054490764659574
1.808183898688605 12.856492569862542 97.04767546059921 105.03884284016281 0.5159383638191808
1.828897078708616 12.82836058485926 88.29709204831929 110.20870779430163 0.5268433683049825
1.8489709244588133 12.798372656057541 80.43186972516425 115.66780320939185 0.5381878138370486
1.868345755954299 12.766428151316122 73.3589065264726 121.43616864564089 0.5500003851055381
1.887020618106635 12.732602629586289 66.98088873398004 127.53524432176226 0.5623109329282293
1.9049433207323414 12.696777479242767 61.231719872529716 133.98762351830305 0.5751492790847232
1.9220830680359957 12.658950541562398 56.05095426566469 140.81895312233684 0.5885515584263138
1.9383953403472833 12.619053386995535 51.37248164506093 148.05691697593136 0.6025560278532316
1.9538895033124972 12.577201033717758 47.14594679778061 155.72993311705926 0.6171981435520257
1.9685023557566041 12.533258426677383 43.32376982364942 163.8717553077277 0.6325258409569816
1.9822151849645218 12.48725146016495 39.86374919360045 172.51628692920465 0.6485810791718232
1.9950007242025873 12.43916226987379 36.73104210403358 181.70262321760228 0.6654163266071154
2.006836483232992 12.388993895180983 33.89023669413136 191.47289800253023 0.6830863951228078
2.017678000284727 12.33670954587395 31.315738993194742 201.87317174180072 0.7016505525732085
2.027512324611771 12.282317316928511 28.98099554313417 212.95329550531977 0.7211710944158328
2.0363177850818146 12.22583762844316 26.85943150206685 224.76903805648595 0.7417192116968316
2.044058202261903 12.167233771042909 24.93290501662118 237.38134215374922 0.7633712410477398
2.0507140603975196 12.106515542374702 23.17868767021 250.85724143435436 0.7862102432846542
2.0562832577081243 12.043756422527023 21.586219079253222 265.270046095368 0.8103249697386864
2.0607251576116212 11.978897273362298 20.13468862020296 280.7010733095909 0.8358136271955333
2.0640266849135664 11.911991483112711 18.81506302605092 297.24057823982275 0.8627847756063622
2.0661830808375568 11.84307767230319 17.612430258104254 314.9888656158521 0.8913585270864355
