M[M_sun], R[km], Lambda[1], P_c[MeV/fm^3], rho_c[fm^-3]
0.24162668629717493 15.618656898711224 2160425.4255784233 3.5677272577965504 0.1711233750220791
0.25364354802151934 15.277311537952027 1723181.9395848608 3.7848118335069865 0.1738880761727117
0.2660391358629687 14.981284884409586 1383040.9459554604 4.011385146953792 0.17666646369272812
0.2788135469970743 14.723530257186473 1116465.8425589849 4.247703531925994 0.17945722793663685
0.2919668840631924 14.49846167072255 905917.0744792616 4.4943920232797385 0.18226693242773767
0.305503183046852 14.301227362513963 738651.8474365989 4.751605163870763 0.18509126263307976
0.31941801585141794 14.128181680242838 605115.2716224059 5.020026995006273 0.18793687593196318
0.3337157449152925 13.975959119705031 497734.1393105265 5.299879127029012 0.19080034755867833
0.34839573180741473 13.842071136064149 411032.5210902118 5.591893013156787 0.19368803162946985
0.3634573013997036 13.72404126236934 340672.4991465825 5.896232348657391 0.1965949249859378
0.378910980543936 13.620059032914856 283320.0285551762 6.213762682545253 0.1995287393214362
0.39474137764632733 13.528503949056912 236424.61017920112 6.544743742619772 0.20248569420060694
0.41096509857304453 13.447926326060974 197893.0129230976 6.8898733040198215 0.2054694227980215
0.427573079609738 13.377088961232886 166106.71657623418 7.249858472296046 0.20848303587809572
0.4445663927703767 13.314987599163647 139820.79115484506 7.624961604741592 0.21152213443521056
0.4619480640107565 13.260597671656463 117989.15390592175 8.016124919574215 0.21459277578817743
0.4797110650534303 13.213189646962991 99832.2183915401 8.424056446055582 0.21769665729828175
0.49786688936115137 13.172018437732241 84652.68214147589 8.849201721127445 0.22083131479569504
0.5164050637897641 13.1364157935827 71947.1427844981 9.292424675052757 0.22400002413958303
0.5353218884124913 13.105863166857985 61281.811222891054 9.754614377697228 0.22720576826054908
0.5546274334864644 13.0798221276891 52306.28991384532 10.236580269023385 0.2304498978570922
0.5743082014555364 13.057858805534794 44736.20347951584 10.738799874709898 0.23372919113300902
0.5943636247183022 13.039541750985116 38333.646788940394 11.262505142293666 0.23704967671724397
0.614799781382792 13.024525530959343 32907.58302715072 11.80863951521966 0.24041304689635523
0.6356000537470274 13.012440051549811 28298.23042185311 12.378181812066439 0.24382093428566073
0.6567709430061138 13.003025958636417 24374.66151234609 12.971829839538458 0.24727138965471185
0.6783026833162673 12.995993107505008 21031.42719315557 13.590892690432447 0.25076900148050046
0.7001886127834371 12.991067218450576 18175.41539011912 14.236576207905799 0.25431650221249114
0.7224215115525499 12.988003067669947 15732.858715004391 14.910069836141592 0.25791587600562005
0.7450072233932724 12.986655567260446 13636.350396174652 15.612413802719923 0.2615671265420711
0.7679267012295197 12.98675231016066 11837.83393050065 16.344853008887792 0.26527193771091945
0.7911702152663496 12.988130368067912 10291.123447457321 17.10901329819297 0.2690351025678824
0.8147429112099056 12.99066303684798 8958.22949994077 17.906349394705227 0.2728590530578562
0.83862365649023 12.994116204473842 7809.211375338465 18.738237380000573 0.2767449682727128
0.8628034722194606 12.998393645841178 6815.963598539818 19.60599985500136 0.2806931354843309
0.8872765966079159 13.00334207788947 5956.769486924595 20.511732600760137 0.2847100086643555
0.9120354759415493 13.00883547317101 5212.194652063347 21.457229309677384 0.2887986002958078
0.937053750781454 13.014724451753489 4566.1703224876655 22.44398767146366 0.29295894288517904
0.962331007225914 13.020933277528117 4005.252924928485 23.47400541287664 0.297194616103968
0.9878545325611815 13.027319062390553 3517.3527194383205 24.54971745506823 0.3015118263307123
1.0135948626948772 13.03377809678907 3092.561805289919 25.67308184599955 0.30591232416307046
1.0395572148232874 13.040234334658427 2722.095655536029 26.846027544124112 0.3103971327691017
1.0657072087010304 13.046558955202581 2398.913638811751 28.071665951123258 0.31497510132426204
1.0920374347282191 13.052689098050163 2116.357703238556 29.35206957935008 0.3196467982866356
1.1185337581863277 13.05852617969531 1869.0228267240977 30.68995796500042 0.32441666335912994
1.145164981456103 13.063975933048074 1652.5423902531377 32.08876780309655 0.32929300526933963
1.1719248012917258 13.069003727807345 1462.5269760379285 33.55039832113675 0.334273251921802
1.1987795218497963 13.073453305070572 1295.7722379187335 35.079410663441735 0.3393710994884845
1.2257241131353809 13.077327029645366 1149.360476738932 36.67785156567943 0.3445834552677651
1.2527183657676568 13.08048726471792 1020.4368859454058 38.350733696527364 0.34992451830644933
1.279758308314535 13.082935185676206 906.9434442058716 40.10031861792364 0.3553910055420414
1.306802427591259 13.084521007212846 806.9585825860836 41.932080997443386 0.3609974980420387
1.3338369810155206 13.085240728018753 718.7815009338718 43.84945813979114 0.36674567254459955
1.360844530759727 13.085036510920357 640.8006273209487 45.85720510087181 0.37264365756597045
1.3877738970157865 13.083778688327156 571.9658493228538 47.96061984393147 0.3787012200621512
1.4146294786564473 13.081490300824479 510.9712205987208 50.16441608219396 0.38492379859030734
1.4413521925121384 13.078041269548802 457.00489365053056 52.47389188657261 0.3913187764757143
1.467945526467629 13.07344756870087 409.1241760669544 54.89542151345856 0.39789763430474234
1.494354560999318 13.067588477613697 366.64774428508446 57.43519207331747 0.4046694284763027
1.5205657149012912 13.060444005637423 328.9301380479399 60.0998285388411 0.41164392509694364
1.5465476671423628 13.051963520142355 295.3695612420244 62.896433159542696 0.4188316584099733
1.572263368988722 13.042089483082966 265.54190785485497 65.83262864966848 0.42624399399396784
1.5976874464662738 13.030766883986418 238.99041998807016 68.916605532432 0.4338931972889222
1.6227743288143202 13.017950662362313 215.29887143996393 72.1571740711813 0.4417925080766431
1.6475262910043111 13.00361816637623 194.15639752981411 75.56382127210074 0.4499562216177412
1.6718749143856482 12.9876904137745 175.2830048652583 79.14653056803158 0.45839876271059243
1.695812408991002 12.970148046229871 158.40845604082824 82.91538979660473 0.46713297846169904
1.7192777850782304 12.95090964721841 143.32470846078795 86.88317885843757 0.47618061505111875
1.7422816358159179 12.930009028756283 129.81698753660234 91.06153359983254 0.48555625925002377
1.7647602836174403 12.907369940498123 117.71461861806989 95.46441122408241 0.49528131922234214
1.786687345130564 12.882942199746525 106.85434040351942 100.10560461843401 0.5053738244370767
1.8080271936486336 12.856694421546988 97.11557459458808 105.00156672676337 0.5158592079142433
1.8287392875123532 12.828569577750844 88.35588880198596 110.16883020996083 0.5267599948838728
1.8488198854583737 12.798612851707725 80.48600822577323 115.62494589213883 0.538099285408527
1.8682077604174931 12.766712522769685 73.40281751942521 121.3902536167764 0.5499069189327509
1.8868798093699601 12.732872915359515 67.0298367482216 127.48609532071485 0.5622124189118289
1.9048057153125315 12.697067784678884 61.27602428553508 133.9349763573707 0.5750453372422443
1.9219489098906215 12.65926346031219 56.091804380361886 140.76240603987142 0.5884413832059026
1.9382655450960646 12.619384664691417 51.40672058842157 147.99613132513866 0.6024391036296571
1.9537656829520733 12.577553969717126 47.17672910863641 155.66473717275971 0.617074590711372
1.9683845646341975 12.533637646815615 43.352959102847784 163.80175396718687 0.6323950778710996
1.9821033881969994 12.487650452944424 39.89174370159065 172.44083562032606 0.6484417665796544
1.9948972207495679 12.439585865264949 36.757470723640054 181.62144841246632 0.6652684655740079
2.0067284987355856 12.389422956339178 33.91287952223027 191.38547253840417 0.6829292293174377
2.017587355402301 12.337178230857004 31.33691915351376 201.77891409515072 0.701483254548155
2.0274285038861803 12.282805753713928 29.000240994012373 212.8518011985726 0.7209935361983901
2.0362425894542326 12.226354019160919 26.877319581399345 224.65936762120978 0.741529643738574
2.0439933831385413 12.167773249404163 24.94979411196814 237.262961279886 0.7631693907831507
2.0506582685141463 12.10708305162344 23.194800301311908 250.7292645532129 0.7859948593222327
2.056235571560089 12.044352313277972 21.599695581392677 265.13132140867094 0.810094123800288
2.060689124556709 11.979519577268205 20.14814911240426 280.551043249174 0.8355675429772588
2.0639996642878637 11.912635716781892 18.826295158064546 297.0778063679834 0.862521056008337
2.0641129559424 11.851303342200922 17.861285024675432 316.456062688403 1.6821367936136942
