M[M_sun], R[km], Lambda[1], P_c[MeV/fm^3], rho_c[fm^-3]
0.24162668629717493 15.618656898711224 2160425.4255784233 3.5677272577965504 0.1711233750220791
0.25364366757897394 15.277303167692466 1723278.5269051192 3.7848135925156927 0.17388809809790665
0.26603807605635554 14.981313618540076 1382908.6785365823 4.011388844735697 0.17666650837824016
0.2788140043800293 14.723543533496143 1116405.6046559983 4.247709293577194 0.17945729476310815
0.2919673887232604 14.498488033191686 905962.9290733387 4.4943999999845055 0.18226702125019656
0.3055042065141424 14.30119027307358 738695.7766517822 4.7516156264682925 0.18509137564910125
0.3194185330257007 14.128176172791223 605136.3312259517 5.0200400205603275 0.1879370110771139
0.3337160486555323 13.976008516206258 497699.7342839764 5.299895058458094 0.19080050796173417
0.34839667768967253 13.842063150442943 411027.6348671698 5.591911890231126 0.19368821427035698
0.36345880074344217 13.72402039413284 340678.5853996398 5.896254595465869 0.19659513393267095
0.378911726471494 13.620060030188188 283323.2045672857 6.213788568295024 0.1995289753683056
0.3947431555763594 13.528482043405164 236412.76901007918 6.544773240428247 0.2024859528565377
0.41096759368896246 13.447916998909236 197883.61733830738 6.889906983325042 0.2054697096251177
0.42757491541879833 13.377094723485968 166096.2451031433 7.249896649126669 0.20848335170523158
0.4445689028348054 13.314957599718053 139819.10462080524 7.625004173574761 0.21152247331049426
0.4619494923294538 13.26059642638704 117987.37961543041 8.016172622890856 0.21459314481189812
0.47971366582773406 13.213192725396143 99826.00258483506 8.424109655821775 0.21769705736133763
0.49786962827086617 13.172029627541491 84652.3106526459 8.84926024114562 0.22083173850563032
0.5164066417788626 13.136426483254644 71945.32929238823 9.292489452330527 0.22400048017565694
0.5353241581395777 13.105865923320176 61283.93613378806 9.75468585142035 0.22720625760749083
0.5546298421775796 13.079845352629958 52306.0301838206 10.236658905063422 0.2304504215424428
0.5743115782624573 13.057868455871745 44735.800301817304 10.738885331391046 0.23372973979137315
0.5943662155220977 13.039548665057387 38331.67838577869 11.262598704718602 0.2370502612969681
0.6148033355028746 13.024513452904023 32906.320342382925 11.808741736083036 0.2404136685697563
0.6356044538550255 13.012437091139011 28297.669051640012 12.378293278542957 0.24382159428693934
0.6567751555591865 13.003039858272592 24181.07613524643 12.971950039758191 0.24727207666987744
0.6783062323229713 12.995980686410938 21030.91474618237 13.591023331204395 0.2507697288533179
0.7001931620440258 12.991061177688383 18175.189072989277 14.23671798966877 0.2543172713854749
0.7224259582045661 12.988000198329605 15732.548481142767 14.910223504337491 0.25791668850729743
0.7450128789797505 12.98664139239888 13636.251321567039 15.612578651400757 0.26156796913917907
0.7679315996594546 12.986755578103239 11838.275944274168 16.34503127036084 0.2652728262996531
0.791175155293691 12.98814132114282 10290.350818812047 17.10920586706897 0.2690360389651171
0.814749146326722 12.990660511067126 8957.874285317272 17.906557224904546 0.2728600391972914
0.8386302409925025 12.994133938008364 7808.852487453122 18.738459549733513 0.27674598902768194
0.8628095853918213 12.99838794940176 6815.694373085749 19.606239252886887 0.2806942095116629
0.8872834167165193 13.00334535194288 5956.483063165182 20.511990378951563 0.2847111382883594
0.912041100116978 13.008840047102316 5211.935567127251 21.457506699221984 0.2887997879975094
0.937061617016719 13.014727998208736 4566.093350645109 22.444283516891627 0.29296017165865795
0.9623380826443371 13.02093123444869 4005.184093048214 23.47432342665498 0.297195907652413
0.9878624717525345 13.027329078892393 3517.190275502985 24.550059133970496 0.3015131836587884
1.0136041031354557 13.033780047763896 3092.4640927524747 25.673445867478684 0.30591372899206504
1.0395662083345039 13.040234825107351 2721.9669293936286 26.846418358178674 0.31039860919422607
1.0657159868846182 13.046563650140376 2398.7469773492257 28.07208538702643 0.31497665300005256
1.092046277654814 13.052690681683858 2116.2995875925203 29.35251615060654 0.31964840566896274
1.1185432751217157 13.058528182698517 1868.9752816399896 30.690437002907885 0.3244183531963894
1.1451717635213126 13.06398393633377 1652.4131726464416 32.08927774424377 0.3292947573768943
1.171934601760054 13.069001860815765 1462.3803659272494 33.5509451467029 0.33427509478034
1.1987892827700795 13.073458483194946 1295.7001086232274 35.079996954141855 0.339373038192886
1.2257338902779011 13.077328656504621 1149.3155309532392 36.678475620227786 0.3445854683711365
1.2527284127993523 13.080493038906363 1020.3921415560184 38.35140269452034 0.34992663754543213
1.2797693719853767 13.08293558179058 906.8971365203035 40.10103081550862 0.3553932088434395
1.3068127104897527 13.084517280960684 806.9411266669539 41.932839338354114 0.36099979062149995
1.3338484548237213 13.085237767640217 718.7702994587833 43.85027112567659 0.36674808915909646
1.3608554132802857 13.085034157628117 640.7648442397501 45.85807102835717 0.3726461755654705
1.3877847263393246 13.083780988855198 571.9240475124645 47.961542411380336 0.3787038459869219
1.414641501239585 13.081491615926842 508.9730429784639 50.165405405079575 0.3849265707820585
1.441363168959875 13.078040221648475 456.9745303204756 52.4749463944745 0.3913216717593229
1.467957084417906 13.073445658925882 409.1153047744024 54.896545875266405 0.39790066088451703
1.4943662189861873 13.067586699246155 366.6185782330628 57.43639133608943 0.4046725951907564
1.5205771922951183 13.060443870681747 328.91613906289285 60.101108161661195 0.4116472414708742
1.546560133994654 13.051961332393189 295.3581292504833 62.89779905075495 0.4188351347117016
1.5722761190406072 13.042083140104529 265.5282348665145 65.83408720786701 0.426247641298295
1.5976998882171922 13.030759365115967 238.98446600445035 68.91816369162535 0.433897027546415
1.62278700930859 13.017944988903002 215.2874322958951 72.15883935060862 0.441796534189951
1.6475393308146828 13.003609244352196 194.15320406996727 75.56560183122903 0.4499604575257111
1.671888043450227 12.98768065616588 175.27332651180282 79.14842597081487 0.458403184663601
1.695825076533517 12.9701384086372 158.40482355516994 82.91741853395801 0.46713764049422823
1.7192906482537977 12.95089984639343 143.32166163511025 86.88535137277869 0.476185534727204
1.7422927259412362 12.92999768583455 129.81204038654047 91.06385079549102 0.4855614141574348
1.7647722841501532 12.90735650213534 117.70835841502844 95.46689542124112 0.4952867701056026
1.786700380773225 12.882928549090005 106.84904182116765 100.10825798008567 0.5053795502764081
1.8080389695753907 12.856680042437668 97.10813937879232 105.00440301066614 0.5158652307690559
1.8287509514553526 12.828551485272225 88.35002491682296 110.17186442242658 0.5267663386150147
1.8488313384358066 12.79859391378408 80.48401427063702 115.62820680994075 0.5381060213394496
1.8682194208231193 12.766693851141628 73.39877302300198 121.39374717251512 0.5499140305319896
1.886890323135162 12.732853318662137 67.02479173940766 127.48984112659849 0.5622199367143491
1.9048150023422388 12.697046373044197 61.27213190377829 133.938982106332 0.5750532458344679
1.921959210224383 12.659238673703888 56.089751676574345 140.7667084985575 0.5884497660315654
1.9382749745145893 12.619360948940331 51.40582932759084 148.00075625592422 0.6024479999141278
1.953774180376198 12.57752738621716 47.17336380098687 155.66969764004082 0.6170839912934195
1.968392883671368 12.533609687548639 43.34992923770292 163.80708002801205 0.6324050269969836
1.9821117214543909 12.48761927549614 39.8896623489696 172.44657630860218 0.6484523661328823
1.9923113757923585 12.442511683239612 37.16472052524693 182.21852490714136 1.1193188268122445
1.9940207501933291 12.396786676375731 35.610891332000655 194.3096642123376 1.6641896885347292
