M[M_sun], R[km], Lambda[1], P_c[MeV/fm^3], rho_c[fm^-3]
0.24162668629717493 15.618656898711224 2160425.4255784233 3.5677272577965504 0.1711233750220791
0.2536448182226121 15.277270269488866 1723210.2810258972 3.784834905667159 0.17388836375605787
0.2660408800424811 14.981272242033109 1382970.9960690748 4.011433649361362 0.17666704981569945
0.2788177075136785 14.72346615999301 1116439.7792718678 4.247779105618628 0.17945810447758428
0.2919728996759333 14.498355006707635 888676.9042120563 4.494496651498539 0.18226809748723696
0.30550897598828763 14.301175922625795 738577.1634707181 4.751742399377021 0.18509274503846523
0.3194278735300921 14.128051738670232 605055.9762123205 5.020197848844897 0.18793864860648243
0.33372748727261736 13.975855934067495 497655.4246963301 5.300088097482113 0.19080245154439637
0.3484081447551665 13.841967336722625 410969.3684484146 5.592140622108327 0.19369042731419087
0.3634728557617147 13.723901000611463 340637.34894699045 5.896524159180331 0.19659766573212295
0.3789264212495553 13.619947776637764 283271.6855407086 6.214102226144162 0.1995318355502211
0.39476052522514476 13.528394915560026 233275.24110618272 6.5451306668973395 0.20248908700381213
0.41098631329568874 13.447814234518514 197836.04100257103 6.890315078767955 0.20547318513716017
0.4275954857048495 13.377032281254163 166066.09879696855 7.250359243285208 0.20848717862815244
0.44459127532071163 13.314907449923089 139781.91740076774 7.625519988018196 0.2115265795251316
0.46197500636442035 13.260547862204627 117965.74196626792 8.016750654984948 0.2145976163574648
0.4797409041535864 13.213111636706913 99791.51828108366 8.424754413236421 0.21770190503574144
0.49789856367819196 13.171953199582585 84628.8487455527 8.849969346668926 0.22083687273259653
0.5164387940714615 13.136369777129019 71927.52360337733 9.293274381927107 0.22400600612895152
0.5353594865139372 13.105816262036988 61265.55798760667 9.755551927428757 0.22721218722228512
0.5546673715409907 13.079798982019 52295.806813310526 10.237611773243666 0.23045676727280814
0.5743520790514622 13.057813490163596 44720.5296654877 10.739920851587758 0.23373638815180006
0.5944115087919011 13.039521074199515 38321.11330377707 11.263732450262728 0.2370573449596444
0.6148488787167579 13.024507123248837 32894.37971702885 11.809980404998903 0.24042120174343823
0.6356554008177163 13.012414676482038 28285.9601719952 12.379643986744558 0.24382959193042758
0.6568272116513488 13.003003350843578 24365.883425781623 12.973406584553526 0.24728040168264326
0.6783601480401888 12.995970516669493 21022.64001964934 13.592606396703989 0.25077854293789104
0.7002509984369787 12.991052708357323 18168.658839437965 14.238436064525589 0.2543265920254238
0.7224861576617851 12.98800496392462 15725.472733695227 14.912085622637905 0.2579265342286825
0.7450762758314375 12.986644656377205 13630.730670664245 15.614576258383071 0.26157817958100754
0.7679982759485462 12.986764379886928 11833.61615502692 16.347191418962183 0.2652835940986468
0.7912443777263003 12.988153438835765 10286.151890641242 17.111539399299016 0.26904738614215146
0.8148224599636965 12.990673094900488 8954.122113786518 17.90907570161277 0.2728719891891922
0.838706352040611 12.994142304811344 7805.731568806694 18.74115180023125 0.27675835852571123
0.8628896998361479 12.998410779477231 6812.412590179786 19.609140284542597 0.28070722461111713
0.8873708056911641 13.00336843234994 5953.736353707355 20.515114155232123 0.28472482716037
0.9121241006855233 13.008877820260002 5209.397330390245 21.460868139816174 0.28881418071270426
0.9371516740092859 13.014757093567686 4563.963386921947 22.447868618877973 0.29297506213126173
0.9624367783671884 13.02096179913515 4003.4697860408023 23.47817718260447 0.2972115589003863
0.9879579607891968 13.027347516045872 3515.510427837145 24.554199684280245 0.3015296320995575
1.0137033968924163 13.033808044457475 3090.9398033447314 25.67785718413168 0.30593075311260054
1.0396691757339125 13.040257463224185 2720.6029985106734 26.85115437298503 0.31041650100535245
1.0658221916437252 13.046584284497222 2397.4383906776934 28.077168270469226 0.31499545679611457
1.0921559521809094 13.052715054162318 2114.9540060710956 29.357927887419315 0.31966788459866535
1.118656357954576 13.058554441615913 1858.6859581048757 30.69624220687366 0.3244388314295465
1.145289833170444 13.064011473455304 1651.5397844425597 32.09545746768747 0.32931599029796854
1.1720537791348213 13.069013459449794 1461.5767397468128 33.557571880583524 0.33429742755676256
1.1989117038847263 13.073474311156055 1295.0005858484353 35.08710197703785 0.33939653257742697
1.2258597657508787 13.077337539143494 1148.6868935197836 36.686038313100056 0.3446098644476628
1.252857210916136 13.080498862289993 1019.7812662326992 38.35946608011385 0.3499520618783358
1.279900531023252 13.082943924842223 906.3892715206242 40.10966174731202 0.3554199100630312
1.3069447131415337 13.084528326023435 806.5190600189201 41.94202950052685 0.3610275738740516
1.3339833497737668 13.08524263061714 718.3238400078262 43.860123560457055 0.36677737569056806
1.360992897288324 13.085030903830553 640.3878142597064 45.8685650907125 0.3726766908732892
1.3879260617115694 13.083769829007466 571.6086514268579 47.97272292678458 0.3787356693429113
1.4147751552564973 13.081462218135307 510.64277040668657 50.17739497797239 0.3849601668865824
1.4415074361432527 13.078021158195211 456.7167056097206 52.48772599085744 0.39135675974288947
1.468103273396401 13.073416649891362 408.8618137596554 54.91017208472138 0.39793734018974947
1.4945135279748067 13.06754766609686 366.39757414562655 57.450925332174194 0.4047109729479479
1.5207255026065256 13.060398366494201 328.7206270835827 60.11661611233925 0.41168743312933614
1.5467100293446228 13.051906387464507 295.17949202887297 62.914352569782004 0.4188772647336886
1.5724262213106766 13.04202046173755 265.36406556629584 65.85176385169103 0.42629184392221064
1.5978399338888172 13.030681839122618 238.81982355974577 68.93704750692063 0.433943447626813
1.6229378832668642 13.017861513292207 215.15355724801154 72.17902147818428 0.4418453281227178
1.6476902501961723 13.003516013934085 194.02505238296337 75.5871811727724 0.45001179426784876
1.672039126391162 12.987578636917137 175.16768576518038 79.17139723909696 0.4584567763696948
1.6959763533164185 12.970019202923528 158.30996738372383 82.94200586235522 0.4671941421032751
1.7194561945384235 12.950801851831798 143.22438909751236 86.91168133740497 0.47624515914249343
1.7424320852300537 12.929825503813717 129.73788386159836 91.09193435573155 0.4856238897417831
1.764920120474381 12.907198131694907 117.63206725162256 95.49700313197636 0.4953528331456809
1.786846231174697 12.882760154585876 106.78288971887329 100.14041605744713 0.5054489460122155
1.8081831265204231 12.856494193271345 97.04774135010481 105.03877821956512 0.5159382265972061
1.8288971705583092 12.828360335714402 88.29989629455473 110.20863866355101 0.5268432237709723
1.8489706844185438 12.798374260570517 80.4303716634877 115.66772891263227 0.5381876603655811
1.8683454833595148 12.766429423307924 73.3556069088021 121.43608904767459 0.550000223073248
1.8870204860785218 12.732603927308348 66.98044405435095 127.53515927829744 0.5623107627204676
1.9049433215490985 12.696777471213382 61.23410232390933 133.9875322486429 0.575149098890075
1.9220825662785141 12.658951009316285 56.05053010635412 140.81885509117996 0.5885513674243409
1.9383949147517447 12.619054009538797 51.371478778260155 148.05681159609406 0.6025558251498716
1.9538883339706445 12.577202315373496 47.145615888453335 155.72982009079735 0.6171979293559453
1.9685025301328365 12.533258622886972 43.32464786181261 163.87163394996372 0.6325256142596699
1.9822140423586143 12.487253591932369 39.86404592813084 172.51615612226914 0.648580837651119
1.9950005809595184 12.439163550450582 36.73160469547044 181.70248248722214 0.6654160702647767
2.0068347268373943 12.38899499588711 33.8904042567288 191.4727464346193 0.6830861226473566
2.0176777788461715 12.336710878211264 31.31600980648909 201.87300832800216 0.7016502625298355
2.027512406525092 12.282317775138068 28.980536791032403 212.9531195442915 0.7211707865825413
2.036317749286118 12.225838266792868 26.86005782011118 224.76884791914836 0.7417188830399171
2.0440580157089334 12.16723513172463 24.932161030689624 237.3811369136129 0.7633708910944538
2.050714144579461 12.106516153654438 23.178917916583465 250.85701960826307 0.786209870035834
2.05628318911502 12.043757465011714 21.586306296531323 265.26980558105873 0.8103245695089022
2.0607252873599955 11.978898210628108 20.13463424401918 280.7008131927163 0.8358132005433172
2.064026610997217 11.911993019638132 18.815357226389946 297.2402960294162 0.8627843183749369
2.066182857591618 11.84307916032678 17.61245871176518 314.98855904517643 0.8913580363270817
2.067169054299337 11.77218038327513 16.517306115901825 334.05490938818406 0.9216597283989866
