M[M_sun], R[km], Lambda[1], P_c[MeV/fm^3], rho_c[fm^-3]
0.24162668629717493 15.618656898711224 2160425.4255784233 3.5677272577965504 0.1711233750220791
0.25364350046018636 15.277306533753729 1723293.4122030872 3.7848106716497005 0.17388806169072113
0.2660381947727626 14.981313121488421 1383095.1925451732 4.011382704502851 0.17666643417714994
0.27881315547556956 14.723554717450908 1116471.562378654 4.24769972625455 0.17945718379658313
0.29196660643246003 14.498481010877638 905924.2876770246 4.4943867545293585 0.18226687375897938
0.30550158955754675 14.301268417281769 738682.3538702857 4.751598253149174 0.1850911879840973
0.3194178112509311 14.12818071692401 605139.4857369225 5.020018391413081 0.18793678666636313
0.3337145015859121 13.97601946357952 497700.54269975366 5.299868604062803 0.19080024160986936
0.3483951070372935 13.84207641063979 411035.74935636495 5.591880544550241 0.1936879109922715
0.363457439924987 13.72402763947816 340682.4609383987 5.896217654295378 0.19659478697338012
0.3789094973813039 13.620041946409327 283315.0638045567 6.213745584614539 0.19952858340889532
0.3947399871457626 13.52851458658225 236418.61593883095 6.544724258878249 0.20248552335451503
0.4109646009045326 13.447916119249317 197891.23311506867 6.88985105834825 0.20546923334454736
0.42757044483829204 13.377114972516184 166098.90978190655 7.249833255955582 0.20848282726977346
0.4445650424697809 13.314975341275144 139813.083669323 7.624933487432986 0.2115219106033547
0.4619460822398903 13.260603369871372 117994.25430395972 8.016093410882519 0.21459253204297346
0.47970931960173563 13.213203209227313 99836.47852892551 8.424021300295395 0.217696393051298
0.497866051066808 13.172009126737704 83778.54624741848 8.849163067891038 0.2208310349297482
0.5164023302552567 13.136432725189357 71948.89611724376 9.292381888834509 0.22399972292193915
0.5353190961600063 13.105875460061272 61284.59548718609 9.754567168413319 0.22720544504080212
0.5546256384787139 13.079840349868752 52308.39407331423 10.236528328964015 0.23044955195655867
0.574305995673325 13.057861371873788 44737.28637667798 10.738743429556653 0.23372882873764067
0.5943616222244682 13.0395397647296 38335.46136109984 11.262443343228668 0.23704929059556754
0.6147971971600058 13.024516800291979 32907.455995763376 11.80857199718672 0.24041263627406362
0.6355970193372241 13.012442749365865 28300.947215057822 12.378108187235469 0.24382049834757338
0.6567689909540019 13.003039808410795 24375.224777328982 12.97175044600478 0.2472709358738302
0.6782978666335362 12.995989068276629 21032.30305268194 13.590806400841402 0.2507685210431759
0.7001857264425014 12.99107003431948 18176.510180484667 14.236482559616768 0.25431599416595263
0.7224175252116364 12.98800735236931 15732.909823147504 14.909968336789682 0.257915339340286
0.7450042564803409 12.986654173244581 13540.701688592471 15.61230491858908 0.2615665699986199
0.7679227687901253 12.986759130615404 11838.124798826306 16.344735265533096 0.2652713507898274
0.7911663795731165 12.988129847696877 10291.354634258105 17.108886104724323 0.2690344840691157
0.8147392154246051 12.990662186147805 8958.447569309343 17.90621212105877 0.27285840170421927
0.838619448446655 12.994115880733 7809.175218140973 18.738090635023127 0.2767442940554693
0.8627978474760706 12.998388466014083 6816.156743906512 19.605841730757184 0.280692426080571
0.8872717924329777 13.00334440189404 5956.701899103482 20.51156233625402 0.28470926253888973
0.9120314990870135 13.008831525020156 5212.430106878697 21.457046091805104 0.2887978158099362
0.9370499316259234 13.01472634287569 4566.495970481606 22.443792263416213 0.2929581312713984
0.9623224113051236 13.020937700572667 4005.4043659268496 23.473795362572375 0.2971937630272704
0.9878497870984648 13.02732022013917 3517.5523582792935 24.54949177389287 0.3015109298065385
1.0135906982340668 13.033782894413765 3092.739495171906 25.67284140749693 0.305911396264583
1.0395518828008679 13.040236015538541 2722.2106982738646 26.845769409079427 0.3103961575813851
1.0657022954166333 13.046558480128885 2399.016182517622 28.071388911309576 0.3149740764335251
1.0920309865469937 13.052684294259379 2116.366645003274 29.351774616596565 0.319645736601831
1.1185274341005595 13.058528336308525 1869.0883666151296 30.68964155800355 0.32441554721294585
1.1451568819802183 13.063982120453419 1652.536188040733 32.08843098448664 0.32929184799377126
1.1719193062874447 13.068997060494903 1462.5529162336793 33.550037140371366 0.3342720347053834
1.1987725102316196 13.073453535985273 1295.8019676804463 35.0790234159749 0.3393698189660947
1.2257174016123198 13.077325614558026 1149.397786277947 36.67743937520495 0.34458212560510015
1.2527108982305581 13.080491477285154 1020.4705055741914 38.350291820963264 0.349923118541531
1.279750722521506 13.08293537405402 906.9626732773518 40.0998482090773 0.35538955025422425
1.306794384050857 13.084515841416737 806.9831310321973 41.93158011099778 0.3609959837864296
1.3338294056897724 13.085235687753944 718.7499447663467 43.848921160469125 0.3667440763643493
1.3608364584793644 13.08503453403745 640.8325874954729 45.85663315374226 0.3726419944214109
1.3877660396289349 13.083781655997507 571.9858303840733 47.960010486254276 0.378699485633497
1.4146213589816274 13.081492954917785 510.9657129843123 50.1637626327883 0.3849219675530611
1.4413440623200269 13.078043363101832 457.02237025736764 52.473195382689056 0.3913168641370075
1.467937073398345 13.073449690184509 409.1434161612303 54.89467887133935 0.39789563524571875
1.4943461161931944 13.0675889929446 366.6429280522883 57.434399959430216 0.40466733685922396
1.52055691223632 13.060449415916901 328.942572978031 60.098983347517276 0.41164173463079323
1.5465396090634504 13.05196768792075 295.38391051523075 62.895530988385055 0.4188293623126513
1.5722556399811205 13.042091102074282 265.550032308754 65.83166527247862 0.42624158495071074
1.5976790499631606 13.030770290512264 238.9972640653875 68.91557636937999 0.43389066740654036
1.6227670526007234 13.017955292587775 215.307504196755 72.15607415590338 0.44178984883311595
1.6475180899328683 13.003622091379905 194.16291243104052 75.56264521537514 0.44995342380666153
1.6718674862282457 12.987695041265717 175.2948174487155 79.14527865784797 0.45839584201845684
1.6958047687524473 12.970155205666567 158.41872750235456 82.91404981997674 0.4671298991993106
1.7192694701363198 12.950914889605183 143.3276823754107 86.88174391830172 0.47617736561771506
1.74227079442812 12.93002042345473 129.82043511769402 91.06000309887665 0.48555285444875407
1.7647518256739534 12.907378663045094 117.71569238811624 95.46277042018426 0.4952777189322159
1.7866797901515201 12.882952641368165 106.85717014338726 100.10385208295283 0.5053700425415399
1.8080193932136872 12.856705542893822 97.11699907944987 104.99969337291905 0.5158552298434282
1.828731315857952 12.828579631403166 88.36008752281145 110.16682612633336 0.5267558048781096
1.8488127968105106 12.798624331136942 80.48942191209072 115.62279207220483 0.5380948363597695
1.868200006713348 12.76672505172241 73.40687422661902 121.38794614213909 0.5499022217599845
1.8868726902126016 12.732887536035763 67.03194298030907 127.48362123787666 0.5622074534473137
1.9047976132449231 12.697082797528983 61.27927156438279 133.9323305852528 0.5750401136665787
1.9219421559797485 12.659279080967906 56.09185750988134 140.7595642948656 0.5884358464059702
1.938258000439318 12.619402639002843 51.40867485746722 147.99307659173164 0.6024332276979663
1.953759042143527 12.577572963679978 47.17815675118732 155.6614608221452 0.6170683816989903
1.9683779757363031 12.533656709995208 43.35259490769235 163.798236147325 0.6323885065543625
1.9820978354527339 12.487670800277327 39.89296456559233 172.4370439454831 0.6484347656666299
1.99489113796398 12.439607674177347 36.75818797052761 181.61736913904832 0.6652610351209146
2.0067236285255636 12.389444226299958 33.916731748608235 191.38107917980204 0.6829213313239882
2.017582931965375 12.337202241280846 31.338365382421728 201.7741774337769 0.7014748474414496
2.0274235036077526 12.282830947917368 29.001020825106192 212.84670091163494 0.7209846135515332
2.036239398790606 12.226379309713055 26.878670498758847 224.6538565083392 0.7415201176487762
2.0439901315202627 12.167800935758505 24.95110171224167 237.2570124956663 0.7631592475595915
2.050654671823656 12.10711243779148 23.195067523423017 250.7228222118785 0.7859839989909627
2.0562276384656832 12.04435901649377 21.599583656346223 265.1243504312186 0.8100825236888021
2.0606869386600795 11.979547443031873 20.148104931885054 280.5435042278328 0.8355551772275674
2.063998552734417 11.912666661673702 18.82696867596028 297.069627137537 0.8625078041894502
2.0661660242112934 11.843783836924691 17.6239180983984 314.8031596924904 0.8910612484286774
2.0671662293133406 11.7729073570051 16.52825450942135 333.8535567233996 0.9213417079488968
