M[M_sun], R[km], Lambda[1], P_c[MeV/fm^3], rho_c[fm^-3]
0.24162668629717493 15.618656898711224 2160425.4255784233 3.5677272577965504 0.1711233750220791
0.2536419616016849 15.277348183655931 1723114.5059715186 3.7848035827964837 0.17388797333158557
0.2660380186337954 14.981290305649049 1383114.3389627167 4.011367802371789 0.1766662540936907
0.2788116327321517 14.723612826719586 1116443.2421566027 4.247676506738132 0.17945691448518375
0.2919653952995385 14.498479220888706 905971.7434908116 4.494354608386508 0.18226651580421802
0.3054992277950953 14.301321336742028 738734.106856249 4.7515560889357715 0.18509073253012093
0.31941519603790075 14.12819599942684 605139.8758853045 5.019965898597471 0.18793624203314083
0.3337112696104844 13.976092661658312 497736.7233842122 5.299804400733264 0.1907995951888735
0.34839161064008867 13.842100248382803 411055.31695531635 5.591804470469465 0.19368717495461274
0.3634523705800356 13.724071821385127 340703.8544366476 5.89612800045112 0.19659394492550206
0.3789050306512739 13.620071177766492 283339.71205515414 6.213641266163852 0.19952763215023264
0.3947349777047597 13.528533308091252 236443.15954482628 6.544605384192651 0.20248448098411417
0.4109578025549216 13.447950788725741 197908.55861889588 6.889715332692376 0.20546807744790688
0.4275636446409815 13.377139812415605 166102.42029959598 7.249679405815398 0.20848155450699213
0.4445580425262156 13.314995532510594 139825.22356054018 7.624761938091469 0.21152054496029035
0.46193792532249917 13.260641289054053 118005.77488380056 8.01590117028946 0.2145910449065663
0.4797003105311366 13.213213164117656 99834.23993236265 8.423806869532902 0.21769478083173277
0.49785529265410294 13.172066120606733 84663.83147216731 8.848927237645324 0.2208293274180067
0.5163915780170515 13.136455315996031 71955.1343278423 9.292120842877372 0.2239978851421266
0.5353085324630487 13.105880907103947 61292.32695556322 9.754279136961367 0.22720347302501812
0.5546123457549318 13.07986612752584 52314.63467519234 10.23621143470226 0.23044744156439623
0.5742931336309671 13.0578953514346 44340.21746389871 10.7383990494131 0.23372661771044342
0.5943474945821875 13.039567379753258 38337.97935559624 11.262066298573709 0.23704693481374023
0.6147820499950309 13.024526137384653 32911.42040366412 11.808160060848975 0.24041013101382952
0.6355811855493845 13.012473410774959 28303.232995829356 12.37765899310566 0.24381783863579926
0.6567513829425704 13.003035234679757 24377.68982907216 12.97126605683835 0.247268167303988
0.678281395720661 12.995998684621547 21034.7771126722 13.590279938705688 0.25076558984305186
0.7001667182447482 12.99107392935935 18042.196623600248 14.23591120200365 0.2543128945230163
0.7223978860127085 12.98800810564874 15734.626490656769 14.909349079852033 0.25791206509542597
0.7449829557117781 12.986642657741628 13638.943771956623 15.611640607140439 0.2615631744791497
0.7679007685580209 12.986749520642196 11839.937020678855 16.344016904124 0.26526776993837425
0.7911431983666098 12.98812883538102 10293.46254245657 17.108110088434895 0.26903071056468136
0.8147149038503733 12.990660508130727 8959.65524017801 17.90537460598351 0.2728544277550724
0.838593782858839 12.994115966227158 7809.870125534821 18.737195335716635 0.2767401806183963
0.8627725125011633 12.998386860034579 6817.175375887098 19.6048770071674 0.28068809797424293
0.8872441078663867 13.00333139198141 5957.452895604019 20.51052354570666 0.28470471039764417
0.9120020142690487 13.00883283585808 5213.255064791273 21.45592827372854 0.28879302963663794
0.9370197473012293 13.014714751288707 4567.13052924989 22.44260007396809 0.29295317959516065
0.9622956751251571 13.020921789314773 4006.287364260502 23.472513842052514 0.2971885583916624
0.9878169099847004 13.027316265763748 3518.0234328937863 24.548114891009224 0.3015054601044787
1.013556719088534 13.033774423087902 3093.4981852325955 25.671374491621485 0.3059057351537076
1.039518169183086 13.040222692538654 2722.646116018196 26.84419452870439 0.3103902079669162
1.0656661865717467 13.046549019106727 2399.3117271561305 28.069698695374658 0.3149678235898196
1.0919941669611608 13.05267744765265 2116.736698855828 29.349975055067706 0.31963925928526354
1.1184908469996342 13.058516582487933 1869.4087168073772 30.68771116830122 0.32440873763818473
1.1451186705197849 13.063973344748872 1652.8048233157415 32.086376066476504 0.3292847874978897
1.1718803268315972 13.068985697363702 1462.8149454334582 33.54783359289154 0.33426460852318113
1.1987318614492177 13.07345066826295 1296.0011936595479 35.07666084014895 0.339362006568334
1.2256751071906713 13.077317040957626 1149.6197475810256 36.67492462640901 0.3445740134147592
1.252668634679342 13.080483866907734 1020.6712097300532 38.347595969253945 0.3499145786743053
1.2797074394515313 13.082925490335052 907.1427284650175 40.096978281311266 0.35538067165649706
1.3067490103757133 13.084519140849691 807.1606514884321 41.92852424554672 0.3609867454422095
1.333784991994087 13.085230343036294 718.9066426984888 43.845645100513224 0.3667343382199069
1.360790370389269 13.085039103693562 640.943328306965 45.8531437629668 0.37263184774703373
1.3877203277986105 13.08378195120946 572.101833043307 47.95629286240524 0.3786889040759475
1.414574419930215 13.081497171295691 511.07195104432157 50.15977601660869 0.3849107966151916
1.4402007220942836 13.07752484262199 458.9875964740453 52.51480893108088 0.4925995131764135
1.4607222761839027 13.067548694118837 419.3907445650233 55.15201796024373 0.6356641050969444
1.4770852436690511 13.050066896829305 387.7791267977101 58.08369706337916 0.7708601035978218
1.4901007402659883 13.025005859466662 361.5535021240287 61.31229643080277 0.8988533209114494
1.500500690355441 12.992842535261941 338.95756111133994 64.84124511827186 1.0204498091547614
1.508782183263865 12.953985137358881 318.9853748128672 68.67540816427794 1.1364756780633247
1.5153934996683873 12.908868322755607 300.77181539412356 72.81991508643691 1.2473792625734386
1.5206692607129777 12.857962541133753 283.96895910613324 77.28265222142971 1.3544067938135311
1.5249150819534882 12.801743237202778 268.12091375784 82.07141717890056 1.458115102716273
1.5283378973481527 12.740531038585129 253.0425561545983 87.19563223664392 1.5587601012402288
1.5311809271366927 12.67482734180371 238.59735963506785 92.66709997935445 1.6585444827703184
1.5335624923824849 12.60499247994168 224.667709343885 98.50144023115976 1.7607347393628137
1.535612206067492 12.53146634287556 211.2689172499159 104.71692466448904 1.8676397115545578
1.5373918187909474 12.454536329124581 198.31560747535886 111.33569499597701 1.983374271908306
1.5389762802344924 12.37471984226912 185.91591589787157 118.38830969702089 2.1160127540433935
1.540322592007607 12.292415692599308 174.06225934321435 125.9122808674941 2.2852252059197387
1.541322682531702 12.208094767604083 162.91986209875415 133.96798383547522 2.470130002777168
1.542289661247117 12.120242212763909 152.0755677802669 142.4900981548732 2.5130848232723104
1.5435227635906152 12.029057842291927 141.43422646783472 151.45534198754595 2.5574678937031345
1.5452142557140318 11.935685591262587 131.01050240233678 160.89370929526228 2.6036106305346323
1.5474010800592142 11.840795009588128 120.95706157263716 170.83415710800588 2.6517660837933312
1.550074082071305 11.74493117249809 111.33369643713834 181.3152526762875 2.7021952900101627
1.5532319347755188 11.648601832532853 102.19491149204032 192.37278875979254 2.755105544213885
1.5568046516912413 11.552133583980904 93.60154661599542 204.04732199745231 2.810694153225132
1.5607427136631173 11.455800915141209 85.57928020319811 216.38429377298215 2.8691445280265673
1.564976066554091 11.359809550317843 78.13266635537234 229.43427981975557 2.93065654463598
1.5694402899455506 11.264418557140862 71.26275345451845 243.24781894871916 2.9954205084865606
1.5740298425106292 11.169542279206487 64.9453818038297 257.885118736251 3.0636704723462764
1.578690091142596 11.075423480737236 59.173333064366105 273.40991696488356 3.1356484638778372
1.5833239687877738 10.982039308080916 53.91069851610428 289.88983470616773 3.2116045015810193
1.5878658907218088 10.889484216805785 49.13584039740698 307.4038348321442 3.2918377413481203
1.5922127039575598 10.797595591855725 44.808709107106914 326.0349367847536 3.3766524231554946
1.5963146973649793 10.7064931504653 40.89444878195085 345.87623010439233 3.466390197244716
1.6000945344181148 10.616061725862288 37.366152943773265 367.02829155544816 3.5614119625716762
1.603471152277182 10.526293804415712 34.18076432629128 389.60471011260444 3.6621274219890703
1.6063875728693744 10.43713899610906 31.318859318919994 413.7293617136979 3.768974853015307
1.6087770125591252 10.348515454853665 28.743251713418108 439.539238035196 3.8824333133340687
1.6105743090556193 10.260267984259103 26.42848554983077 467.18660842725825 4.003030421561233
1.6117574119163762 10.172811824366386 24.352533455634195 496.84036930655685 4.131344252434265
1.612240575449925 10.085228663893126 22.480797807222757 528.6888983542855 4.268013730863296
