M[M_sun], R[km], Lambda[1], P_c[MeV/fm^3], rho_c[fm^-3]
0.24162668629717493 15.618656898711224 2160425.4255784233 3.5677272577965504 0.1711233750220791
0.2536375693103486 15.277449050270066 1723412.8331721341 3.7846959748039284 0.17388663204987018
0.2660255322434914 14.981589210689688 1383373.508882715 4.011141594565952 0.17666352050585588
0.27879259454485406 14.723941146010848 1116838.2741982967 4.247324051993936 0.17945282654128905
0.29193953706084425 14.498876832205267 906306.9180675459 4.493866664061511 0.1822610824309132
0.30546628237785617 14.301753001323714 739100.3767341358 4.750916094067291 0.18508381936409277
0.31937400635747953 14.128660888929664 605436.3101425999 5.019169145188256 0.18792797540900164
0.3336619702232443 13.976522615789902 498085.2679215792 5.298829920744 0.19078978379233633
0.3483336396419576 13.84259031696868 411352.737617348 5.5906498374119264 0.19367600356215245
0.3633851066925106 13.724555203441476 340952.5664560953 5.89476728379423 0.1965811647867022
0.3788289861042895 13.62053676125988 283602.89682815946 6.212058008908788 0.1995131947504323
0.3946490890627786 13.529001924323994 236676.82274171998 6.542801236679392 0.2024686610477068
0.4108632471436106 13.448372469377752 198113.65548625166 6.887655479110194 0.205450534870417
0.42745816995244046 13.377546233490742 166303.2046699549 7.247344528383734 0.2084622386643778
0.4444410734635151 13.315390919501967 139990.68069736572 7.622158496164309 0.2114998198885425
0.46180923400490703 13.261026001249723 118150.51051584218 8.012983771078643 0.21456847646505467
0.47956078988843287 13.213553089880557 99958.0677041776 8.420552777626444 0.21767031460973327
0.4977035914908481 13.172361299832057 84778.4386113169 8.845348456302315 0.2208034155119877
0.5162285727491055 13.136724799195234 72062.3709138918 9.288159479329469 0.22396999689578714
0.5351301177586144 13.106159713302395 61380.39106542186 9.749908349021382 0.2271735482971881
0.5544177713391694 13.080149598158732 52393.966664145984 10.23140274988962 0.23041541759941805
0.5740868199344002 13.058101603992728 44812.44376188097 10.733173363902045 0.23369306719074767
0.5941327508303441 13.03976916959154 38400.899090798914 11.256345058905408 0.23701118840475943
0.6145512691417618 13.024697741765932 32966.70033369957 11.801909490444515 0.24037211711692397
0.6353362578474081 13.012576045161754 28120.30332655714 12.370843209078032 0.24377748187282025
0.6564868013190694 13.003123096250555 24423.139824696995 12.963916356906205 0.24722615943306217
0.6780060405417419 12.996066876687149 21074.6856298555 13.58229200292721 0.25072111515673334
0.6998771212831648 12.99112372405646 18076.634782830773 14.227242228582034 0.2542658649191147
0.7220917109628248 12.988045165842943 15765.031530129401 14.899953518070493 0.25786238721860316
0.7446615536220259 12.986653267126014 13665.439246199605 15.601561613504591 0.2615116573493439
0.7675637757067402 12.986739179484056 11863.728090796796 16.33311805487911 0.2652134419084143
0.7907903862625664 12.98810730888943 10314.321209119076 17.096336721394884 0.26897346066756234
0.8143449361087365 12.990614029541515 8979.394375198903 17.89266843646126 0.27279413788922396
0.8382089173628617 12.994061833920334 7827.115138024019 18.72361270610307 0.27667777546316324
0.8623700894304753 12.998314294883842 6832.363984560864 19.590241403699125 0.2806224372516729
0.8868246434686111 13.003253046939276 5971.325723417949 20.494764576404194 0.2846356521506939
0.9115665935374591 13.00873264896965 5225.324372254793 21.43897072839226 0.28872042233819245
0.9365661903651464 13.014618870788201 4578.370535436723 22.424514567553835 0.29287806269784167
0.9618259564593103 13.020802473572033 4015.8151308397205 23.453073543911014 0.2971096055646344
0.9873309502990907 13.027188214553794 3526.5663519107266 24.527228363021113 0.3014224878440823
1.013055769900009 13.033646342384179 3100.851613762388 25.649122550701097 0.3058198606282139
1.038997669897057 13.040096608966836 2729.502512723501 26.82030530484832 0.31029995878090966
1.0651314649920496 13.04643454002259 2405.2134777163883 28.044060446303565 0.3148729765581405
1.0914430202377832 13.052560164200422 2122.2782020785985 29.32267860641032 0.3195410088302018
1.1179217777418151 13.058397172573498 1874.3837642126093 30.658430836693956 0.32430544937112193
1.1445338077839071 13.063852497403246 1657.1533011392241 32.05504200056073 0.3291766250347533
1.171279152989942 13.068885582758274 1466.752763788999 33.514411170482305 0.33415197151366605
1.1981213414392413 13.073359018835369 1299.6540922857232 35.04082706734325 0.3392435139962233
1.225045825149417 13.077232410018405 1152.7952978351461 36.63678343435089 0.3444509758333093
1.252025307049911 13.08042072983844 1023.5427243163703 38.30670883164499 0.3497850571857119
1.279050447366573 13.082880686696056 909.7596784041878 40.05345172217722 0.35524601502382025
1.3060781451031684 13.084484542529545 809.5335645574695 41.88217847123773 0.3608466351451194
1.333100441177432 13.085230910022613 721.0098104102506 43.7959608838106 0.36658665103308197
1.3600953352689178 13.085053698168835 642.8963345087474 45.800225144061 0.3724779675917067
1.3870133938830314 13.083835406485607 573.7490860364079 47.89991397743915 0.37852843156983396
1.4138490052180188 13.081553551457981 512.6563934355195 50.09931913727836 0.3847413897768222
1.4405739174211982 13.078187094460123 458.47651655897465 52.4045071373121 0.39112827195046396
1.4671489086631433 13.073592055227834 410.49700498095007 54.82144195544412 0.39769849463950085
1.493450730271167 13.067755404853042 368.02303871245294 57.36070736331334 0.4268108293493939
1.518102928310422 13.059545781735013 331.91281794716065 60.07795373336837 0.497841633705771
1.5407806769003975 13.04769482969735 301.1336878630936 62.99740897601407 0.5680776538702883
1.5616748938799583 13.031886686388404 274.54533036781004 66.12906833910544 0.6377402256013602
1.580922290172714 13.011861340567696 251.25198264250662 69.48321293038688 0.7069173968843954
1.5987022521069405 12.987763383211043 230.67792721222588 73.07192620844043 0.7759531871493796
1.6151246785012963 12.959526816902928 212.3377344464664 76.90691668627211 0.8449375398549454
1.6303217155953083 12.927326838139901 195.83334403837654 81.00255008858211 0.9142046276779416
1.6443793689899764 12.89126033627138 180.9228158387697 85.37363384004355 0.9839679840458415
1.6573900813979194 12.85146050538242 167.36754457360593 90.03646146055617 1.0544674257976199
1.6694331183816788 12.808083771816419 155.00308521193804 95.0090548245598 1.1259625192688836
1.680561037874595 12.761291949133566 143.69428672973618 100.31043634338202 1.1986806601773048
1.6908345794921473 12.711203822608939 133.3174937972377 105.96218141421026 1.2728986780356815
1.7002826277360703 12.657936444245744 123.76055341493738 111.98744166479095 1.3488759543669337
1.7089494564152539 12.601651371298603 114.95153623009399 118.41197604548536 1.4268905859270289
1.7168536989819336 12.542488316259751 106.82890848594259 125.26324471284296 1.507185825992025
1.724012870754549 12.480503627702895 99.3359770055438 132.57164651705008 1.5899655055556017
1.7304491089287224 12.415881435830114 92.40718879427465 140.37068496285707 1.675103659999469
1.7361705605995121 12.348699293453091 86.00602307693944 148.69556613069648 1.76381596257053
1.7411797134089357 12.279104422740259 80.08827016336356 157.5880159209914 1.8568071180097203
1.7454831477064376 12.207180675519858 74.6224254312615 167.09177388638358 1.9544635980003362
1.7490640254032368 12.133037553480893 69.56870534075877 177.25542104289792 2.0572157212552793
1.7519178326224774 12.056753232977972 64.89899156269142 188.13286524590058 2.1655383895131983
1.754049148254516 11.978476649528547 60.58651745107868 199.7823060231948 2.279925429256157
1.7554252256164637 11.898189068693343 56.605756095534566 212.26854382754726 2.400926112202003
1.7560524476775432 11.816044801591655 52.933086208664484 225.66192837022592 2.529119223667385
