M[M_sun], R[km], Lambda[1], P_c[MeV/fm^3], rho_c[fm^-3]
0.24162668629717493 15.618656898711224 2160425.4255784233 3.5677272577965504 0.1711233750220791
0.2536448201466874 15.277295871738026 1723100.9057364755 3.7848481314950737 0.17388852860962248
0.26604270418873693 14.98121858553124 1382929.6282014966 4.0114614529504475 0.176667385805665
0.27881966402086683 14.723439062737409 1116340.007412078 4.247822427874378 0.17945860695046573
0.2919764605321146 14.498304481843233 905757.114280197 4.4945566295057775 0.18226876535626774
0.3055125457157537 14.301145630833364 738530.5469548228 4.751821069985548 0.18509359483118243
0.3194314834817091 14.12803054399388 605025.5081690297 5.020295791850759 0.18793966480297078
0.33373160597495144 13.975826977824813 497512.79463308846 5.300207891828337 0.19080365767468807
0.34841524526885703 13.841905007321873 410929.83086046495 5.592282567187809 0.1936918006718826
0.36348094787368634 13.72384465270569 340605.21199579985 5.896691444425354 0.19659923691054554
0.37893475523855014 13.61990438427291 283235.7566445011 6.21429687636575 0.19953361052586788
0.3947699520055797 13.528353979811127 236345.46616212456 6.545352480293368 0.20249103200764007
0.4109981143291518 13.447761354818482 197821.1217508312 6.890568338004447 0.20547534199909426
0.4276089210862246 13.376950877723104 166038.09797169775 7.250646325418957 0.2084895535850721
0.4446070378199584 13.314823314898414 139763.52973536172 7.625840099855513 0.21152912782118788
0.4619886781074113 13.260468993313342 117936.90672021205 8.017109380790982 0.21460039139159182
0.4797582237174871 13.213088193025454 99776.06237756008 8.42515455090195 0.217704913511604
0.4979188557100497 13.171901602790383 84616.15502379612 8.8504094210477 0.22084005905912818
0.5164603183400198 13.13632222309695 71916.29977099354 9.293761515778808 0.22400943558163675
0.5353810941054673 13.105776042356963 61254.37767154171 9.756089424367723 0.227215867210843
0.5546908802757005 13.07974995953168 52283.91058307449 10.238198223529068 0.23046064234341063
0.5743769423202225 13.057789554523591 44712.247119407235 10.740563514111663 0.23374051424427547
0.5944370846294615 13.039508482693533 38314.296701517036 11.264436077023623 0.23706174123237952
0.6148775242294462 13.024466265486344 32888.636710731276 11.81074915361255 0.24042587701763796
0.6356849702985771 13.012421532021008 28279.17473662438 12.380482274249195 0.24383455549294594
0.6568590311155152 13.002990920713552 24360.39171131609 12.974310561339346 0.24728556844325789
0.6783933717336252 12.99596838337122 21018.1368713244 13.59358890144604 0.250784013261066
0.7002865863541163 12.991051054180664 18163.815423235133 14.239502366452122 0.25433237676541615
0.722524500829589 12.987997955213084 15721.62804472992 14.913241329585038 0.257932644886959
0.7451157225467355 12.986645574897556 13627.348136659451 15.615816060696602 0.26158451662804094
0.7680403814371551 12.986762614166654 11748.891216596816 16.34853210895492 0.2652902771020039
0.7912887047793454 12.988148763968939 10284.778151567401 17.11298770718235 0.26905442877294994
0.8148659921876811 12.990676975143408 8951.480750540453 17.910638803867982 0.272879405997626
0.8387546839679703 12.994141431888618 7803.6546790394705 18.742822763278344 0.2767660357363331
0.8629381075989492 12.998422337241081 6810.393590215025 19.610940838828334 0.2807153025626471
0.8874228333661063 13.003377114940697 5916.091105802106 20.517052968841288 0.2847333233422232
0.9121826181836472 13.008873349022844 5208.362565085839 21.462954474490004 0.2888231137936022
0.9372079470171601 13.014759719301859 4563.071638094666 22.450093782727834 0.29298430419507787
0.9624945904203599 13.020977969065259 4002.2745378971263 23.480569105152142 0.29722127320856184
0.9880182551634608 13.02736175605095 3514.8280191754316 24.556769626815612 0.3015398412612415
1.0137654907282074 13.033823157140349 3090.3198879164083 25.68059519745416 0.3059413196333236
1.0397327039725413 13.04028112470362 2719.789999804047 26.854093936523313 0.3104276061470742
1.06588870893558 13.046606538815313 2396.721443284968 28.0803231476114 0.3150071280585092
1.0922246019499104 13.052734435033976 2114.468483113886 29.36128689507656 0.31967997496379025
1.1187253396314885 13.05857030519724 1867.2023530322863 30.699845456541514 0.3244515421262346
1.1453605975326062 13.064022186955466 1650.8254782858837 32.099293197252095 0.32932916948694846
1.1721273301940218 13.069028025861101 1461.0872417447513 33.56168509234545 0.3343112895044902
1.1989870042915283 13.073483570510964 1294.541190800088 35.091512089365516 0.33941111562331044
1.2259370749845855 13.077353006864657 1148.2790165297695 36.69073252597848 0.34462500725176004
1.2529358707349698 13.080508897266501 1019.4723758176362 38.36446344804582 0.34996779811087314
1.2799805121483137 13.082946772660733 906.0786347105811 40.11501908359922 0.3554364838717334
1.3070343620570202 13.08455281375137 806.2027853204654 41.947733988194 0.36104481940449545
1.334067874527451 13.0852380496863 718.039895767813 43.86623917132654 0.3667955544488332
1.3610777411878745 13.085030854658797 640.165277389204 45.875079008005486 0.3726956324599284
1.38802000648305 13.083776953359909 571.3778301088172 47.97966297985097 0.37875542297423614
1.4148645997501572 13.081450454765431 510.4157652540044 50.18483728552514 0.3849810210525044
1.4415975729934847 13.07800479425604 456.53737931212197 52.495658735918965 0.39137854008868567
1.4681937438074235 13.073402621388944 408.71035546031817 54.91863040116606 0.39796010845642354
1.494604673247553 13.067524615947253 366.2542090581246 57.45994720018753 0.40473479565011533
1.5208176367115436 13.060371407850253 328.6003637673527 60.12624261329853 0.411712381947318
1.5468022314438867 13.051872861142144 295.0660892845913 62.92462816657271 0.4189034169444671
1.5725199429875294 13.04198163052838 265.256845569018 65.86273669729394 0.4263192828734221
1.5979338343853497 13.030637019935599 238.72833669424958 68.94876978444479 0.4339722632584324
1.6230433715764998 13.017820827021353 215.06299431695123 72.19154977591832 0.4418756175416616
1.6477829072638894 13.003460234838665 193.93130251711762 75.60057689826097 0.4500436623813299
1.6721326603617859 12.987510519289627 175.0959770618407 79.18565710778674 0.45849004448020453
1.6960689286793207 12.96994901448978 158.2367477079607 82.95726904048259 0.46722921684215823
1.7195488870405184 12.95072223531813 143.16562575367846 86.9280264178045 0.4762821727076658
1.7425307598965472 12.929772155127147 129.6770490852449 91.10936814109533 0.48566267349707176
1.7650114989534227 12.907103913565761 117.58125021883406 95.51569361753272 0.49539384424437416
1.7869221115174472 12.882621816385416 106.73830200689032 100.16037951906141 0.5054920262962889
1.8082724421845124 12.856377792542826 97.00916712386528 105.06011820609754 0.5159835421033381
1.8289758457460508 12.828222936890837 88.26697938349332 110.23146812338757 0.526890954098677
1.8490557912463492 12.798240066888393 80.4014965580338 115.69226445375841 0.5382383423269834
1.868428416103156 12.766284213869469 73.3274962666773 121.46237532038408 0.5500537322916403
1.887104439737432 12.732443939812644 66.95553266869703 127.5632439352569 0.5623669719378045
1.9050232602391317 12.696609367591124 61.207747206993034 134.01767313141357 0.5752086063513254
1.9221606061848606 12.658771314291185 56.02836994124447 140.85122899425238 0.5886144440986991
1.9384685837097948 12.61886348246343 51.350873925292355 148.0916124501698 0.6026227663241367
1.953960029493128 12.576998257877873 47.12679131535374 155.7671462303264 0.6172686661267521
1.9685681485859552 12.533045150474726 43.30504900423966 163.91171163823114 0.6326004797144222
1.9822794024438288 12.487024740996869 39.84787792767866 172.55935450236007 0.6486605987367436
1.9950609388904461 12.43892071678563 36.71670961794891 181.74895819832452 0.6655007264169719
2.006891573993824 12.388739810914856 33.87758312651964 191.52280138069247 0.683176107024231
2.017731073408367 12.336442129240542 31.304001682657617 201.92697555049952 0.7017460490263409
2.027559127824384 12.282039055516229 28.969410749730656 213.01123068009488 0.7212724485379505
2.036360692539583 12.225543658560413 26.849260306499986 224.83164103217482 0.7418274224306753
2.044095486527838 12.16692505181125 24.922872512973765 237.44891800619533 0.763486464083784
2.050746299166694 12.106191886127462 23.1710221988661 250.93027854856777 0.7863331369287333
2.05630990187808 12.043417736860414 21.578542910423224 265.3490887262234 0.8104562653426535
2.0607457445207724 11.978543499206594 20.126466975551633 280.78671854504665 0.8359541053154347
2.0640416461957005 11.911619656528515 18.808358129089388 297.3334983395501 0.8629353228174476
2.066188326952047 11.842689871519697 17.607210293068526 315.08980700906676 0.8915201144033282
2.067173028727768 11.7717762682328 16.51185281844542 334.1648710156487 0.9218334040058941
