M[M_sun], R[km], Lambda[1], P_c[MeV/fm^3], rho_c[fm^-3]
0.24162668629717493 15.618656898711224 2160425.4255784233 3.5677272577965504 0.1711233750220791
0.25364475604416337 15.277249713039277 1723150.6597803654 3.7848344933367244 0.1738883586165579
0.26604073755549684 14.981253741550574 1383053.4261984625 4.01143278255464 0.17666703934085176
0.27881696236200065 14.723481651998432 1116349.345445156 4.247777755004169 0.1794580888124919
0.29197266960308216 14.498367857943583 905833.7476049013 4.494494781628937 0.18226807666580497
0.30550905519996235 14.301187370420973 738583.2469220626 4.751739946754339 0.18509271854545936
0.31942660912362497 14.128070116786883 605054.4166962772 5.020194795395988 0.1879386169257715
0.3337269445219636 13.975864859441806 497638.50911192823 5.300084362809668 0.1908024139424418
0.3484079197640806 13.841969265023883 410970.5804946289 5.592136196881109 0.1936903844989002
0.3634734278832696 13.723880825396805 340625.0138459054 5.896518943969607 0.19659761674976017
0.3789260871103675 13.619958846267608 283267.7579001007 6.214096157829056 0.19953178021449408
0.3947585812027035 13.528420805713294 236379.11937124556 6.545123751771674 0.2024890263675019
0.410985965768242 13.447816049211475 197837.8080224249 6.890307183322895 0.20547311789623685
0.4275950619189388 13.37700907068997 166056.84736429623 7.250350293419638 0.20848710458820824
0.44459107335588827 13.314891479879625 139777.06551718054 7.625510008462491 0.21152650008145135
0.46197445352374533 13.260523676626065 117966.64017889048 8.01673947165515 0.21459752984536748
0.4797405796457826 13.213111166811888 99791.50061482047 8.424741938913275 0.21770181124627017
0.4978984183861472 13.171953847515208 84628.03886222628 8.849955627342142 0.2208367733988088
0.5164390243450925 13.136363346831464 71926.71915869125 9.293259195553395 0.2240058992159338
0.535358816830086 13.105811876563159 61264.07051837194 9.755535171024583 0.22721207249907246
0.5546666556534676 13.079799960311266 52295.087143898556 10.237593337567064 0.23045664449839376
0.5743513966627921 13.057833024722997 44721.64144377411 10.739900816739183 0.2337362595218662
0.5944096444957299 13.039502036946768 38320.881203280536 11.2637105149158 0.23705720790719986
0.6148482658177262 13.024482074309235 32894.923126788664 11.80995643954953 0.24042105599352057
0.6356541278409752 13.01245175583638 28286.669739176432 12.379617853502209 0.24382943719356046
0.6568262086033598 13.003002301273014 24365.815556096175 12.973378403527523 0.2472802406114548
0.6783593013818711 12.99597042142723 21023.370716709105 13.592575767673202 0.2507783724036536
0.7002498955785657 12.991044669425703 18168.9076191684 14.238402823235619 0.25432641168980336
0.7224856568756134 12.988003994859088 15725.706859490965 14.912049594279583 0.2579263437331711
0.7450750285257925 12.986639149380593 13630.828300882684 15.614537608478516 0.261577982028333
0.7679969304073797 12.986752714092416 11833.466978540147 16.34714962404918 0.265283385761488
0.7912448390903825 12.988144559834195 10286.578061780929 17.11149424958294 0.26904716659437117
0.8148210538253576 12.990670455164436 8954.261612354077 17.90902697338833 0.2728717579772515
0.8387037522600557 12.994135226011501 7805.4876447404895 18.741099709640697 0.27675811919640003
0.8628870994964205 12.998405611544948 6812.324974427573 19.609084154196687 0.28070697278965456
0.8873706519833575 13.003371648331083 5953.846208760615 20.515053714931405 0.28472456230160087
0.9121277603253227 13.00885681380868 5209.672557237882 21.460803100856484 0.28881390223471326
0.9371502037590459 13.014752290267587 4564.041474498848 22.44779925220946 0.2929747740216121
0.962435005020054 13.020964464398968 4003.3792336415154 23.47810261760879 0.29721125606978344
0.9879556758657871 13.027352142340991 3515.4989808851506 24.554119569926698 0.3015293138432629
1.0137011839226673 13.033807502245331 3091.106084079402 25.677771830560516 0.30593042371673124
1.0396665406163228 13.040263669898915 2720.617639809168 26.851062736586258 0.3104161548195388
1.065819554216876 13.046591888976662 2397.4980350954984 28.07706992222168 0.31499509296318184
1.0921541648665607 13.052717356388921 2115.0650782247176 29.35782317592243 0.31966750770156976
1.1186523004762392 13.058554614560826 1867.7621064185114 30.69612988179681 0.3244384351955594
1.1452880014622264 13.064004180963844 1651.6064100030505 32.09533789567681 0.3293155794603173
1.1720515973438614 13.069013326575545 1461.5883271474834 33.55744365886449 0.3342969954363492
1.1989084976887885 13.073481455930226 1295.0020681182389 35.08696450032532 0.3393960779792087
1.2258568140992003 13.077338061350632 1143.555264788426 36.68589198038863 0.34460939240098754
1.2528537066388696 13.080500088297612 1019.8238250720705 38.359310297457654 0.34995157133368576
1.2798977796178523 13.082944366072205 906.3904847715955 40.109494743797796 0.35541939340995043
1.3069422058587938 13.084526424817696 806.5162993279758 41.941851675673306 0.361027036282579
1.333980953180587 13.085243077041628 718.350495068006 43.85993292022833 0.36677680900921644
1.3609900353948723 13.085031503852555 640.4032754497263 45.86836203461808 0.3726761004137497
1.3879228907811743 13.083768730494658 571.6170811844077 47.97250658737255 0.37873505357110876
1.414775398452882 13.081458611197005 510.64280118768477 50.17716298260734 0.3849595168100031
1.4415046910544032 13.078023074291249 456.7198823384139 52.48747870787988 0.39135608079648204
1.4681004119183507 13.07341715196604 408.8702314539171 54.90990841900575 0.39793663044906225
1.4945103523960057 13.0675481795831 366.3898112027189 57.45064409987918 0.4047102303397437
1.5207214425871012 13.060399908441077 328.7256460094167 60.11631603296416 0.41168665541937266
1.546707168000647 13.051908041274723 295.18712291899664 62.91403225742986 0.4188764495132864
1.5724233373581786 13.042022507438558 265.37069174287274 65.85142180545144 0.4262909885934819
1.5978367342804054 13.030684050566993 238.8239564637315 68.93668210027133 0.43394254938640053
1.6229349039823942 13.01786147683486 215.1579331215025 72.17863094730266 0.4418443839438888
1.6476870002839188 13.003517313767684 194.0230044675419 75.58676360363016 0.45001080088075507
1.672036454295264 12.987579541319493 175.16739565991057 79.17095273404986 0.45845573934450534
1.6959729350398807 12.97002183038548 158.30425583357172 82.94153008372996 0.4671930487653799
1.7194532954297184 12.950804353188627 143.22614123097904 86.9111718355497 0.47624400537147094
1.7424292312426606 12.929827281087023 129.7381967411253 91.09139091858755 0.4856226807941697
1.7649174517941089 12.907201402084608 117.63440543830905 95.49642052336725 0.4953515547723023
1.78684405375075 12.882761251847963 106.78731995473382 100.13979377004638 0.5054476031430019
1.8081803479680143 12.856497798634601 97.04872156925657 105.0381130258968 0.5159368140570572
1.8288939348178688 12.828363946951105 88.3008894416524 110.20792704318458 0.5268417359620826
1.8489674015604083 12.798378914348158 80.43348129510876 115.66696411432223 0.5381860805561842
1.8683428951970942 12.766433124517993 73.36024671426631 121.43526967971826 0.5499985551403538
1.8870173237906014 12.732608915919961 66.97924796980632 127.53428385538344 0.5623090106308158
1.9049412636843035 12.696781758944095 61.23294038750296 133.98659273443542 0.5751472439973129
1.922080318260163 12.658956982787684 56.053428789065606 140.81784597539752 0.5885494012830493
1.9383925692376793 12.619059339757232 51.372154264637565 148.05572683439016 0.6025537385567639
1.9538862790658922 12.577208730703775 47.14544001816511 155.7286566182536 0.6171957244590097
1.968500246101145 12.53326670117181 43.324190693536465 163.87038471453312 0.6325232806775036
1.9822130086393042 12.487259915450498 39.864072105845146 172.51480961889888 0.6485783514798693
1.9949977103426697 12.439171159196333 36.73001569688944 181.70103383384793 0.6654134315225688
2.006833141515213 12.38900235900948 33.89113393351819 191.47118622183174 0.6830833178341165
2.0176765033968316 12.336719402402089 31.314777375756137 201.87132617599497 0.7016472768759534
2.027510443385004 12.282326859050308 28.98148838243516 212.95130823359435 0.7211676178028439
2.0363162318350327 12.225848009787866 26.859444093464397 224.76689068037925 0.7417154999061094
2.0440562835930445 12.167244914125394 24.932966071488103 237.3790242096896 0.7633672887401882
2.050712789035234 12.106526045817152 23.17896724251031 250.85473617191087 0.7862060278821924
2.056282369801601 12.043768504987165 21.586613123158433 265.2673297720534 0.8103204496188758
2.0607250004460176 11.978909061239499 20.136036052833706 280.69813559896687 0.8358088086663636
2.0640262108470617 11.912004803950822 18.81553478970537 297.2373910094942 0.8627796117221385
2.066183198145243 11.843090915723558 17.613038205265784 314.98540326580644 0.8913529845450043
2.067170746012426 11.772187620037055 16.518236230086433 334.0514820305787 0.9216543151614243
