M[M_sun], R[km], Lambda[1], P_c[MeV/fm^3], rho_c[fm^-3]
0.24162668629717493 15.618656898711224 2160425.4255784233 3.5677272577965504 0.1711233750220791
0.2536451166198242 15.277243691114156 1723159.656647742 3.784840521918043 0.17388843375991578
0.26604190373327097 14.98122993324457 1382959.6610417513 4.011445455934831 0.17666719249117205
0.278818237348785 14.723486568570902 1116396.689618073 4.247797502045413 0.17945831784841215
0.291974130935417 14.498345381894637 905818.9784703144 4.494522120614093 0.18226838109174973
0.30551081639596306 14.301145389885892 738604.6490669292 4.751775806090301 0.18509310589472633
0.3194289247359453 14.1280652788748 605033.4546796267 5.020239439341818 0.18793908012394045
0.33372797953840816 13.975870362468621 497625.11027191364 5.300138966859981 0.19080296371462394
0.34841117271737637 13.841941504923794 410946.59990209783 5.592200897481728 0.19369101049500972
0.3634753926125529 13.723900669543426 340622.9371105274 5.89659519487643 0.19659833291441345
0.37892963591500256 13.619945448859982 283252.0864933498 6.214184881946731 0.1995325892716165
0.39476476944511746 13.528372151652494 236369.27795824877 6.5452248570943095 0.2024899129245948
0.41099136155360566 13.447810101580012 197831.65122736144 6.890422621899665 0.20547410101959854
0.42760123775940057 13.376979312706409 166045.25076585507 7.250481148702804 0.20848818712043055
0.4445978409313107 13.314859885018588 139776.5031768498 7.625655918885303 0.21152766162223705
0.4619795130971082 13.260496551141502 117947.3309287419 8.016902982528062 0.2145987947341623
0.4797488875368666 13.213084409144727 99784.4877936761 8.424924325496987 0.2177031825384079
0.49790709223153023 13.171931442774374 84621.27838706727 8.85015621723434 0.22083822575533377
0.5164488630264227 13.136339729957776 71923.28018204907 9.293481235296358 0.22400746238956684
0.5353693598189145 13.10578917178398 61260.328479807984 9.755780166377981 0.22721374986694542
0.5546774889755294 13.079783748834034 52291.833880559345 10.237861280772062 0.23045841894691887
0.5743626139802744 13.05780377364332 44718.37437110795 10.7401937467059 0.23373814022299086
0.5944213332498415 13.039494817195557 38318.35065699553 11.264031232394286 0.23705921175580924
0.6148618213232779 13.024471107977911 32891.67357630631 11.810306839535238 0.24042318701006316
0.6356679994740678 13.012422455125861 28283.965843198497 12.379999949229376 0.24383169961071366
0.6568406271265235 13.002997131612448 24362.848888444034 12.97379044032913 0.24728259564484914
0.6783748009644504 12.995969111256 21020.73698755161 13.593023597320443 0.2507808657991487
0.700265897071838 12.991047092219217 18165.979258878957 14.238888847371024 0.25432904839445836
0.7225020430558092 12.98800579662386 15723.616151323571 14.91257636887471 0.2579291289890247
0.745092810872925 12.986640217800502 13629.425915926076 15.615102713400585 0.2615808704698457
0.7680166213403605 12.98675499279808 11832.082546869287 16.347760713055568 0.2652864318869184
0.7912646519899504 12.988146289792393 10286.371979857113 17.112154390194906 0.26905037663462483
0.8148414740818162 12.990676535988309 8953.173841444139 17.90973943652469 0.27287513856388995
0.838726358367025 12.994140468061106 7804.87465561818 18.741861335018143 0.27676161847093383
0.8629096178365186 12.99842349214048 6811.543731258071 19.60990484625219 0.2807106547173242
0.887393521046454 13.003367442546061 5952.923780516723 20.515937424414204 0.2847284348535758
0.9121525589709744 13.008857963008795 5209.043812347799 21.461754049086647 0.2888179739196526
0.9371750841801729 13.014755072580318 4563.417646215643 22.4488134775153 0.29297898653612026
0.9624623256433568 13.020965873337538 4002.8837413665615 23.47919284978793 0.29721568382660246
0.9879843384845215 13.02735111798405 3515.0461594164835 24.55529094163101 0.3015339671469679
1.0137292371453233 13.033811381421497 3090.49490565009 25.679019807080078 0.30593523989846694
1.0396961775453992 13.040265257317383 2720.212665848278 26.852402577186652 0.31042121649606264
1.0658500800313948 13.046592197265284 2397.1836579469536 28.0785078999271 0.31500041266799483
1.0921843538761684 13.05273260741192 2114.6400195993024 29.35935419366817 0.31967301842540474
1.1186855885612668 13.058554566678394 1867.5289864170425 30.697772221510082 0.32444422865531897
1.1453192608950757 13.064015422860324 1651.384051245854 32.09708619640697 0.32932158644942544
1.1720852073019359 13.069019474174755 1461.359393748286 33.559318431580024 0.33430331361369775
1.1989433996136638 13.073481346172281 1294.8011027143136 35.08897459538212 0.3394027248186235
1.2258917611067401 13.077343884888958 1148.487908882682 36.68803156381965 0.3446162943659356
1.2528901987840713 13.080506596086014 1019.6722209917111 38.36158805380238 0.34995874377005465
1.2799345609623196 13.082943239630017 906.2745993635292 40.1119365669896 0.3554269475951455
1.3069873113157664 13.08454635424699 806.4073077057174 41.944451724054815 0.36103489662274185
1.3340196572706748 13.085240703071811 718.1796010938388 43.86272035026883 0.3667850946928494
1.3610296492091827 13.08503304935576 640.2875658297204 45.87133100477624 0.3726847337756655
1.3879623969905956 13.083769483368053 571.5072013708449 47.97566978141281 0.3787440570424486
1.4148138645837667 13.081460117362624 510.5922122399503 50.1805550929744 0.3849690218770699
1.4415454133225778 13.078015009989485 456.6304560212447 52.491094348752455 0.39136600799165455
1.46814132355399 13.073410116000494 408.7954154229366 54.91376360322924 0.3979470079116521
1.4945524377271564 13.067540275796738 366.347486383566 57.454756137517194 0.4047210883846416
1.5207646845702334 13.060387633759571 328.6772161957789 60.12070364745832 0.41169802671574013
1.5467488679949357 13.051892518080319 295.12924357565015 62.918715713350686 0.4188883692809562
1.5724661607605794 13.042005130179833 265.3245873222539 65.85642304913311 0.426303494818972
1.5978799357466584 13.030662542837401 238.78798277951586 68.94202491477786 0.4339556830606643
1.6229778822637004 13.017841983023697 215.1164248037696 72.18434112335133 0.4418581893241769
1.6477308114404057 13.003491009524545 193.9793230421158 75.59286912830042 0.45002532577925497
1.6720780543073435 12.987549870013503 175.13944383371563 79.17745211055903 0.45847090231554355
1.6960157863428151 12.96998692718124 158.2712712411311 82.94848673811396 0.4672090351368933
1.7194945579342558 12.950769975532506 143.19851753387425 86.91862158699725 0.4762608753931522
1.7424763576223088 12.929817757582004 129.7045846622955 91.09933686769553 0.4856403576061362
1.7649587336980324 12.907159080509542 117.60723308146157 95.5049392346139 0.49537024672691327
1.7868846595082741 12.88271706679187 106.76180910309819 100.14889266148285 0.5054672381559775
1.808220963204082 12.856444016322872 97.03099173547812 105.04783929034177 0.5159574677999931
1.8289343161267084 12.828308428773175 88.280994454902 110.21833215719116 0.5268634902876292
1.8490074045707998 12.798316485311004 80.41876400405148 115.67814679677171 0.5382091801192778
1.8683803501645369 12.76636747357056 73.3436654650665 121.44725028028556 0.5500229432527085
1.8870561267350916 12.732537515153476 66.96966953545254 127.54708409233777 0.5623346292916371
1.9049772667863205 12.696706789224745 61.222107678093096 134.000330118135 0.5751743658581556
1.922116408551507 12.658874717965036 56.04249175972188 140.83260107927893 0.5885781498364928
1.9384260522854235 12.618972342052196 51.36217765983989 148.07158804138209 0.6025842483775571
1.95391907052559 12.577112763545813 47.1379591370285 155.74566874441672 0.6172279641410267
1.9685315616027605 12.533171791916269 43.31695990804706 163.888650877972 0.6325574020226099
1.9822423378585974 12.487156394637738 39.85677239201802 172.53449805266652 0.6486147040201325
1.9950266174293654 12.439059913607013 36.72461498600884 181.72221592548604 0.665452014996194
2.0068588676088277 12.38888632160822 33.88528650656571 191.49399956081217 0.6831243296472064
2.0177002731532743 12.336596710679759 31.311381009623553 201.89592254183424 0.7016909329990867
2.027533036595682 12.2822008547188 28.97521829915743 212.97779319288415 0.7212139516545766
2.036335897828335 12.225713547866693 26.8554607745053 224.7955094465005 0.7417649681246662
2.0440741806577187 12.167103698568393 24.92874563772178 237.40991623938507 0.7634199624886092
2.050727084536534 12.106378777549452 23.175055021942345 250.88812471391026 0.7862622080809993
2.056294457809703 12.043613213618924 21.582862237145388 265.303470099253 0.8103804917115105
2.0607336750778145 11.978747981725007 20.131516381423722 280.73728767551063 0.8358730271844614
2.064032362228168 11.911834620139139 18.811535713299836 297.2798686186019 0.8628484330600783
2.0661861369524863 11.84291615201828 17.609510576828807 315.03154760679433 0.8914268525590325
2.0671719283096204 11.772008779868834 16.51553611379859 334.10159753307 0.9217334685944112
