M[M_sun], R[km], Lambda[1], P_c[MeV/fm^3], rho_c[fm^-3]
0.24162668629717493 15.618656898711224 2160425.4255784233 3.5677272577965504 0.1711233750220791
0.25363859310440023 15.277452664824965 1723373.933136414 3.784736970084106 0.1738871430362608
0.2660306827874202 14.98146899296783 1383245.9274876812 4.011227771590265 0.1766645619043365
0.2788002836768246 14.723799476116964 1116691.7810529186 4.247458322934005 0.17945438388185184
0.2919496834201535 14.49871899554428 906165.3314760203 4.494052548843131 0.18226315230109816
0.30547837883997 14.301577495952678 738960.2753804955 4.751159900342702 0.1850864529371785
0.31938941621099404 14.12851195615764 605318.532739272 5.0194726652657025 0.18793112454695313
0.3336814538806144 13.976311169440145 497958.13094539905 5.299201140749866 0.19079352136183
0.3483558966480842 13.842344485295792 411220.5638121231 5.591089680458155 0.19368025916462137
0.36341160516665083 13.724359831768687 340861.00778521673 5.895285625929398 0.1965860331657286
0.37885729560104703 13.620374057292988 283499.8092124896 6.212661117347008 0.19951869437319902
0.3946817820271959 13.52882745756199 236597.98703701934 6.543488481526368 0.20247468725659246
0.4108991773995006 13.44821125477692 198030.16917432274 6.888440120116392 0.2054572172024876
0.4274994203472477 13.37736722783671 166232.26446483826 7.248233921918353 0.20846959638915766
0.44448491264788176 13.315270068836686 139935.447243106 7.623150180618073 0.21150771433444548
0.4618583949506528 13.260852132419862 118095.32418935918 8.014095033889559 0.2145770729813145
0.4796132055518308 13.213442321055405 99915.47579456701 8.421792276295735 0.21767963390693898
0.4977603782515327 13.172247012469581 84733.63949987802 8.846711617802143 0.22081328538368056
0.5162895444536323 13.136628118803934 72019.41732538716 9.28966835077771 0.22398061944484993
0.535197332727603 13.106057681971503 61352.257953064654 9.75157315138144 0.2271849464153763
0.5544952658288286 13.080010292090257 52365.03424185402 10.233234324767954 0.2304276151736081
0.5741648448182781 13.057997312456774 44785.94480307736 10.73516375171306 0.23370584609703937
0.594216337372398 13.039674056498317 38376.487270156234 11.25852417333027 0.23702480355111988
0.614639001841583 13.02462512997378 32947.599641470464 11.804290192307414 0.24038659575636373
0.6354303643651751 13.012544031016237 28334.10996821846 12.373439161032037 0.24379285269696724
0.6565869051812466 13.003094160057532 24407.572220005706 12.966715638746306 0.24724215898016064
0.6781116509217915 12.996032519138202 21058.990920226617 13.585334338201124 0.2507380540644481
0.6999868440460815 12.991094178717116 18200.057087884667 14.230543913802881 0.25428377672257657
0.7222086753982697 12.988022321574586 15754.927500285356 14.903531896166417 0.25788130745247617
0.7447843083297999 12.986655168144733 13655.66569084049 15.605400249267337 0.2615312779090953
0.7676921887045843 12.986751144435546 11854.7470384313 16.337268893592032 0.2652341327983319
0.7909249395166204 12.988121306226256 10306.042061984619 17.100820574352465 0.26899526412613506
0.8144809493638362 12.990655136155103 8971.727931588692 17.897507493851535 0.2728170988705316
0.8383538289300809 12.994091741578533 7820.333416032337 18.7287855129982 0.2767015418343642
0.8625233160377117 12.998343279516183 6826.537937154171 19.595815166312672 0.28064744320933177
0.8869849051143015 13.003287535113794 5966.178242631658 20.500766093460204 0.2846619517289833
0.9117319655939088 13.00877075672508 5220.47955555311 21.44542863256351 0.28874807321372875
0.9367388680071292 13.014656755506651 4574.054072859298 22.4314019711256 0.29290666905118584
0.9620056892241737 13.020845227911957 4012.3305037499827 23.4604768056736 0.29713967241037564
0.9875159991542548 13.027238942801244 3523.3948616018124 24.53518229234014 0.3014540850293593
1.0132476802972712 13.033697389958572 3098.007988706271 25.65759637707378 0.30585256275615297
1.0391958297418806 13.040145137389539 2726.9198958118754 26.829402529652935 0.3103343264580884
1.0653374261658717 13.046483417617505 2403.0650935353087 28.053823606778057 0.3149090947340832
1.0916530799661288 13.052602039958284 2120.0209609217454 29.333073123251733 0.31957842270856507
1.1181376357545614 13.05844149891183 1872.442378096257 30.66958069225593 0.3243447812091094
1.1447564223624664 13.063898535439048 1655.4410888086823 32.06699944850311 0.3292179785412998
1.1715070590017973 13.068922048990684 1465.1797085341166 33.52713805711794 0.33419486243382507
1.1983571125976846 13.073400557447284 1298.2562858709925 35.05447200999541 0.33928863412242166
1.22528600202955 13.077269277541019 1151.5985042872578 36.65130686784952 0.34449782618159674
1.2522704867210532 13.080439728421286 1022.4462925210779 38.32227768216162 0.3498343758911172
1.2793015900365112 13.082896917770267 908.7467838077013 40.07002543898433 0.3552972885667004
1.306334106257577 13.084502395317736 808.6246754815025 41.899825491605924 0.36089998476120433
1.3333604693016157 13.085227323089986 720.1875788650925 43.81487884296487 0.36664288499133646
1.3603592065720256 13.085050037362201 642.1801635274871 45.82037443906566 0.3725365590045054
1.3872824677473956 13.083812117519797 573.1361546045542 47.921380577828195 0.3785895324441106
1.414122110428026 13.081527272630485 512.0380039808243 50.12233815875364 0.38480589161174455
1.4408536687824678 13.078134381951818 457.9671618084648 52.42904207423151 0.39119563569479815
1.4674351204698446 13.073550739419163 409.99583095030556 54.847601321643474 0.39776891094865013
1.493837708022636 13.067711282110936 367.425418658693 57.384186938347085 0.4045347468186224
1.5200436348329636 13.060608122076525 329.62510206233827 60.04540638534403 0.4115028802450786
1.5460229148638658 13.052149855368603 296.0187724272701 62.838342818380816 0.41868381387332937
1.571735875751087 13.042304391313497 266.1210529451018 65.77059811639141 0.42608887900941367
1.597151679591117 13.031012130180528 239.50709756298977 68.85034004834343 0.4337303038772414
1.6222455983966468 13.018232870902361 215.7788241129301 72.08635400690038 0.4416212878005792
1.646994220331229 13.00394279971952 194.58916599943518 75.48809979100292 0.449776082008681
1.6713487127757074 12.988060142611008 175.68180680641865 79.06577398031652 0.4582100778481286
1.695285297231912 12.970560449180173 158.78226891982237 82.82911654762532 0.4669347227868128
1.7187501836476025 12.951360334771914 143.64960281240906 86.79079289634933 0.47597140630174706
1.7417646152815172 12.93053476628165 130.12183149950408 90.96299645975229 0.4853370503835627
1.764245243757663 12.907932527920341 117.98508372158538 95.35877425022933 0.49504952811411845
1.7861756794591963 12.883544478604552 107.10449860357285 99.99277584780745 0.5051303448450022
1.8075210557655674 12.857346705608606 97.33253940074368 104.88096142220391 0.5156031022972127
1.828250834353639 12.829298809648648 88.56287116415352 110.03933367519475 0.5264884737912097
1.8483325152092824 12.799375198106935 80.67590386511411 115.48628899459803 0.5378128681050247
1.867731334379794 12.767538380180065 73.57772731862678 121.24170728352168 0.5496045330344024
1.886414614133542 12.73376116054808 67.18142446947182 127.32682607696225 0.5618927668104491
1.9043536977872801 12.698012533069845 61.4173575435705 133.76465720265574 0.5747090743472089
1.9214936774971922 12.660216697304747 56.218381271133076 140.57947460235698 0.5880849632003146
1.9378511799222076 12.620491272818375 51.527537401795996 147.79949285430612 0.6020608597476368
1.9533621361601679 12.5787048639041 47.28696240189704 155.45383643254303 0.6166749126971998
1.9680000796947925 12.534852157670416 43.45344569329609 163.57472088976465 0.6319700785088973
1.981741698849594 12.488940381255357 39.98216380157804 172.1967724833436 0.6479911306825276
1.9945516900373261 12.440947435550978 36.83840662716012 181.35887812526698 0.6647901901551311
2.0064110611045387 12.390863709492315 33.988363683881126 191.10269119075946 0.6824208698973245
2.0172996993153633 12.338713203340534 31.409451094085302 201.4740421508422 0.7009421369201448
2.02715639957203 12.284394820854677 29.06687968307343 212.5234021979658 0.7204188247088354
2.035989132635905 12.227990009672782 26.936745713093142 224.30466352352494 0.7409165292614188
2.043779998960214 12.169531874214899 25.00286036156111 236.88009614355428 0.7625165705551147
2.0504812373083614 12.108942460359556 23.244427502937885 250.31464389531195 0.7852959026134098
2.0560783704739776 12.046248832270733 21.645292536604178 264.6826888278544 0.8093475731208057
2.0605702402791275 11.981519421263766 20.190646202419508 280.0651897353227 0.8347695340561173
2.063921620211818 11.91473998188165 18.86550525716282 296.5514391521591 0.8616682468036371
2.0661180227341127 11.845923844151109 17.65844310250055 314.24026637587525 0.8901601669413711
2.0671522364714194 11.775137621445461 16.560708524476727 333.2422482889769 0.9203761951076994
