M[M_sun], R[km], Lambda[1], P_c[MeV/fm^3], rho_c[fm^-3]
0.24162668629717493 15.618656898711224 2160425.4255784233 3.5677272577965504 0.1711233750220791
0.25363804420079267 15.277454236076421 1723316.9628236175 3.7847205196072147 0.17388693798900232
0.2660280958947664 14.981545152239791 1383301.0005843418 4.011193190544281 0.17666414401280411
0.2787974207472834 14.723873689181403 1116786.269215663 4.2474044425613116 0.1794537589507246
0.2919454321677549 14.49879719223861 906243.8259074619 4.493977956495144 0.18226232169799134
0.3054738218864532 14.301637825688129 738961.9724016147 4.751062064671373 0.18508539612520594
0.3193830022328946 14.12858386304175 605375.4531917889 5.019350866867422 0.1879298608415611
0.33367496574957056 13.976355289098116 498012.33913281333 5.29905217467137 0.190792021520599
0.348346935061771 13.842480353680902 411287.4639785934 5.5909131760827515 0.19367855143623466
0.36340114920312033 13.724438078402843 340891.5036663565 5.895077619827477 0.19658407952840057
0.3788462251092287 13.620430318770028 283538.0117309747 6.212419094274574 0.19951648741419317
0.3946687996332533 13.528888768116214 236617.85379602617 6.543212694073329 0.20247226897319992
0.41088392506020877 13.448289749215212 198058.83205239792 6.888125246856338 0.20545453560967353
0.42748299457142164 13.377436970909903 164249.0194589849 7.247877010448652 0.20846664375203738
0.4444676797242823 13.315297146211853 139957.54622466463 7.622752218608913 0.21150454630096382
0.46183907742747426 13.260909767730505 118112.68697191634 8.013649083427216 0.21457362319395282
0.4795918444615928 13.213488390084828 99931.21159974179 8.421294862732957 0.2176758940523183
0.49773947902974985 13.172272525990543 84752.41007168974 8.84616457616752 0.220809324568513
0.5162655389777941 13.136676265816895 72038.99322822611 9.289062832847996 0.22397635656087508
0.5351708787157629 13.106088564343226 61359.69385114251 9.750905054966173 0.22718037227367335
0.554466150980004 13.080031587217105 52377.2370499003 10.232499298560601 0.2304227201858018
0.5741341902560841 13.058023612455328 44796.809169630076 10.734364989892859 0.23370071779872822
0.5941833209224507 13.039694811174689 38387.40877983045 11.257649670333278 0.2370193396405694
0.6146033677940931 13.024647324572074 32953.70992624883 11.803334786342347 0.24038078529403648
0.6353923596142073 13.012543569012134 28341.58524879327 12.372397368461888 0.2437866841658553
0.656547807692487 13.003091833783792 24413.143475051816 12.965592243359332 0.24723573811279867
0.6780685681325826 12.996048997580017 21065.469307723935 13.584113397016633 0.2507312561910426
0.6999427624650152 12.991120336796367 18205.035084898762 14.229218885975842 0.2542765883819469
0.7221617712175827 12.988027415541325 15757.84773787099 14.902095820825428 0.25787371438081563
0.7447347595484672 12.986666056318443 13659.70144050901 15.603859722386437 0.261523403757552
0.7676406878502645 12.9867458663224 11858.2930427194 16.33560306658267 0.26522582906849407
0.7908699429768209 12.988112152165822 10309.234044269242 17.099021094149936 0.2689865138632653
0.814429560924064 12.990612525915383 8974.990472926023 17.895565453900133 0.27280788402982475
0.8382986278274439 12.994071777178323 7823.154608601068 18.72670952411713 0.2766920037396012
0.8624612299083951 12.998337676915092 6828.891013300081 19.593578254258528 0.28063740759569145
0.8869201628556158 13.003272676677383 5932.191783616078 20.498357501790622 0.28465139690682917
0.9116654852933728 13.008747632909246 5222.774551460546 21.442836868671293 0.28873697603128334
0.9366698903807962 13.014637179947599 4575.777500759031 22.428637826566018 0.2928951883683506
0.9619319495102261 13.0208266510095 4013.655753651278 23.457505618258025 0.2971276055354552
0.9874425521482356 13.02722143800125 3524.719278573456 24.531990090061687 0.3014414039251166
1.0131697253278231 13.03367649182017 3099.1933055070467 25.654195510129973 0.3058394381556468
1.0391165065544656 13.040129066106674 2727.989978327838 26.825751454559434 0.31032053335383253
1.0652559361345406 13.046462164060712 2403.971582679576 28.049905249417986 0.3148945990263759
1.091567486281333 13.052587707128982 2120.8745331810933 29.32890136282936 0.31956340693251845
1.1180514535983648 13.058424994787899 1873.2747899338299 30.665105763746634 0.3243289956088247
1.1446681185259828 13.063883582194519 1656.2972716183608 32.062200377375035 0.3292013814864543
1.1714158083960473 13.068908540453855 1465.8449175198957 33.52203015755312 0.3341776482856451
1.1982617774795583 13.073385232515502 1298.84857347119 35.04899562771779 0.3392705252108802
1.2251895953539922 13.077251477252638 1152.0172172309117 36.64547788380193 0.34447902278136655
1.2521718119222063 13.080432858244594 1022.8740604395688 38.316029092170766 0.3498145817278533
1.2792004747889472 13.082888349506446 909.1603551817251 40.063373519807385 0.35527670975102954
1.3062323646273035 13.084504006363774 808.9466152407098 41.89274277227589 0.36087857262764234
1.3332565272415406 13.085228980538254 720.5085445296723 43.8072859912211 0.3666203151092202
1.3602535607114152 13.08504821076306 642.4408331726034 45.81228735156365 0.37251304285259734
1.3871744832884818 13.083818047024144 573.4195526381152 47.91276474548788 0.37856500900401885
1.4140125800006569 13.08153961705186 512.2695188546012 50.11309920254862 0.38478000303830406
1.4407420463916452 13.078152186009044 458.1726221886806 52.4191946478757 0.39116859835153694
1.4673178774100557 13.073559431067933 410.2214575721004 54.83710186572484 0.3977406483016031
1.4937241618366328 13.067739717639476 367.599673528099 57.37298836724168 0.40450517642103395
1.5199288856943751 13.06064044404295 329.7802590914754 60.033457771721004 0.4114719132522244
1.5459074783872093 13.052191109993315 296.160574116887 62.82558904624663 0.41865135450927804
1.5716198167631632 13.042352454814365 266.2511654928222 65.75697949917516 0.42605482398058275
1.5970352453803134 13.03106680775168 239.62675381032355 68.8357919080949 0.4336945417269864
1.6221293787602564 13.018297163193655 215.87156376453547 72.07080621019256 0.44158369819837356
1.6468777536265626 13.004014621440072 194.68260459002414 75.47147623658245 0.44973653496666494
1.6712318466928568 12.988140461448085 175.76575436568325 79.04799203292875 0.45816843285693437
1.6951560133256216 12.970633553324364 158.8593697282526 82.8101771485084 0.4668912001028026
1.7186506849048355 12.951498185161617 143.71632109470286 86.77051197448962 0.4759254799921382
1.7416500042391612 12.930642694578065 130.18517795009166 90.94136556899208 0.4852889296136659
1.7641320349703054 12.908052765461832 118.04329734511417 95.33558527086689 0.49499864631554974
1.7860625597637632 12.883679308216372 107.15838189386604 99.96800859648422 0.5050768981911435
1.8074030280995124 12.857481551784364 97.37692416975268 104.85448761630984 0.5155468851149053
1.8281418961220612 12.829456065309612 88.60454215938483 110.0109015451738 0.5264288471100093
1.8482254737849242 12.799542148837926 80.71485849977988 115.45585398305506 0.5377499998734919
1.867626774033449 12.767715136584341 73.61500360348134 121.20910221283081 0.5495381610589013
1.886312443905927 12.733953525505731 67.21439752425604 127.29186811881252 0.5618226064673769
1.9042545602185534 12.69822019336474 61.44332585850822 133.72727460944168 0.5746352695010122
1.9214050877673186 12.660465547389503 56.25082451092173 140.5393246908163 0.5880067359043936
1.9377471199937224 12.620704312563577 51.5489058689792 147.75633550773404 0.6019778444442935
1.953274106075775 12.578956351169087 47.30984156359226 155.40754984865032 0.6165871949873707
1.9679214403723324 12.535136219327741 43.47494536131252 163.52487969634845 0.6318767541622614
1.9816637232323984 12.489231641980602 40.00051361066011 172.1432102591051 0.6478922338918436
1.9944922325125014 12.441284068194948 36.85666413489976 181.30125568321603 0.6646852300779549
2.006342130059122 12.391179048396873 34.00801816895564 191.0406348574653 0.6823093104827079
2.017234457015904 12.339046359947812 31.425145158900282 201.40713975395104 0.7008233917650403
2.0270963911078415 12.28474197292296 29.07864728996758 212.45119853225987 0.7202922512835352
2.035948623975307 12.228394666288457 26.951198487760216 224.2268297945103 0.7407819918078588
2.043732760803599 12.169916098217984 25.014911607959203 236.79599907355689 0.7623730434892758
2.0504344173742446 12.109327761601495 23.256427823919505 250.22366761858257 0.7851425371750217
2.0560453391292075 12.046670854027205 21.655559222510426 264.5842524674418 0.8091837692980471
2.0605435388757765 11.981960233688936 20.199905226170124 279.9585458760248 0.8345943015287789
2.0639040747990123 11.915197940203006 18.87446151043928 296.4359535459539 0.8614811394287449
2.066106092337482 11.846401792996438 17.66738012576207 314.11482156041615 0.8899593544649174
2.067148778262254 11.775630927789294 16.568441139781424 333.10601811213655 0.9201610304253698
