M[M_sun], R[km], Lambda[1], P_c[MeV/fm^3], rho_c[fm^-3]
0.24162668629717493 15.618656898711224 2160425.4255784233 3.5677272577965504 0.1711233750220791
0.25364194784168753 15.277347571506713 1723228.5253521171 3.7848022071089678 0.17388795618430433
0.2660378588195474 14.981294405883961 1383104.7559542493 4.011364910416996 0.17666621914612374
0.2788113042279253 14.723628105724236 1116549.6901546244 4.247672000692077 0.17945686222183999
0.2919646045305444 14.498495452827283 905925.6264989226 4.4943483700229905 0.1822664463385924
0.30549963629917365 14.301287563928174 738728.7486439747 4.7515479064519965 0.18509064414367965
0.31941414235971916 14.128231497204846 605160.8106034434 5.019955711736106 0.1879361363405224
0.3337108235133026 13.97608903381993 497737.8689590099 5.299791941324391 0.19079946974330003
0.3483907171789721 13.842111041109764 411055.68543213175 5.591789707422468 0.19368703211807187
0.3634522245966629 13.724048090665198 340693.7138607155 5.896110602120528 0.19659378151669926
0.37890403748282475 13.62009623202823 283343.9726191963 6.213621022031466 0.19952744754812082
0.39473394172061665 13.528545121086811 236440.4845719514 6.544582315294376 0.20248427870104085
0.4109569852923334 13.447959818506309 197910.45564044177 6.889688993720917 0.2054678531341732
0.4275641232415912 13.377118534646813 166112.55991378878 7.2496495496413935 0.20848130751451607
0.4445570173297525 13.314988159655785 139832.44753374296 7.624728647250243 0.21152027994378825
0.4619353773382045 13.260637353999769 118005.1556189137 8.01586386415806 0.2145907563134792
0.4796983963962389 13.213239191098324 99833.60044350111 8.423765257243089 0.21769446796548628
0.4978532260250582 13.172047018687683 84661.20598315193 8.848881472641095 0.22082899605982223
0.5163891691919426 13.13645748572705 71955.63100415855 9.292070184603263 0.2239975285047187
0.5353058768207783 13.105889211720115 61294.93158625887 9.754223241988715 0.2272030903384484
0.5546102879434323 13.079861717030292 52313.39931691668 10.236149938736348 0.2304470320252529
0.5742903805357649 13.05787523075605 44743.03698928686 10.738332219660242 0.23372618864272882
0.59434497134168 13.039553393631516 38337.90329224487 11.261993130105376 0.237046477655826
0.6147791560666455 13.024555347431656 32911.92464111593 11.808080121482332 0.24040964484910443
0.6355780002777316 13.012467938907948 28303.390221230406 12.377571823697785 0.243817322499267
0.6567482433970298 13.003033090392641 24379.450810059298 12.971172057680933 0.2472676300433504
0.6782768827409783 12.995996192271551 21035.14768116694 13.590177775124618 0.25076502102360376
0.700163001813001 12.991072868941544 18042.78026728046 14.235800326294346 0.2543122930168821
0.7223939190247765 12.98800666344769 15735.448721926674 14.909228909122131 0.2579114297074783
0.7449788339573484 12.986652091492429 13639.377398865276 15.611511693438485 0.2615625155578171
0.7678963118295067 12.98675682310661 11840.070233611832 16.34387750188087 0.26526707505315555
0.7911376755366087 12.988124744621889 10292.900424495872 17.107959498123986 0.26902997829499353
0.8147099735969674 12.990662058689994 8959.689415627043 17.905212081704896 0.2728536565889914
0.8385879199026017 12.994126466572114 7810.007045159538 18.737021598288095 0.2767393823848063
0.862765833616442 12.998398892558518 6817.306842141905 19.60468979785068 0.28068725808410555
0.887238448749362 13.003339295426178 5958.176287432305 20.510321963606927 0.28470382703362734
0.9119970131081878 13.008825779529746 5213.4162788030935 21.45571135626564 0.28879210085887824
0.9370139879879532 13.01471160113903 4567.135849232078 22.442368724670843 0.2929522187018902
0.9622899102190237 13.020909887051051 4006.4614956851383 23.47226515803104 0.29718754841196
0.9878109561467747 13.027309227344752 3498.825801790931 24.547847701919803 0.3015043986890671
1.013550602010352 13.033765386490364 3093.490444768184 25.671089831622854 0.30590463659595046
1.0395109685405988 13.040222149614456 2722.675127670033 26.843888918255683 0.31038905342567213
1.065661927250192 13.046561823510151 2399.3088119988392 28.069370704163465 0.3149666102077079
1.0919868393101062 13.052681830743904 2116.657687448329 29.349625845432037 0.3196380023449909
1.1184834350981163 13.058515887548648 1869.4807610281266 30.68733657165335 0.3244074162242361
1.1451119115376662 13.063967495183986 1652.897084063512 32.0859773052838 0.329283417393708
1.1718715146190415 13.068987416467143 1462.854443813237 33.54740599046235 0.3342631674589071
1.1987236084234791 13.073445295577928 1296.0698279353799 35.07620237865808 0.3393604905604729
1.2256675520732685 13.077314534826057 1149.6173052799288 36.674436636109434 0.34457243923359204
1.252659747966969 13.080487634971437 1020.6006944424272 38.34707283649222 0.3499129215043983
1.279699357669122 13.082923931468684 907.1992600077702 40.096421369608684 0.35537894875774145
1.3067401446134383 13.084521846143405 807.1633711749754 41.92793125324441 0.36098495273664166
1.3337758136551936 13.085228849772896 718.9184465737238 43.84500938035718 0.36673244853083287
1.3607813584325879 13.085035724362124 640.967847165496 45.85246664680623 0.3726298787852181
1.387711144035905 13.083782054054426 572.1251252570422 47.95557145858807 0.3786868507278096
1.4145655465552667 13.081496456180925 511.0948728731633 50.15900241618932 0.384908628901564
1.4412873569952411 13.078051983711337 457.1112634924511 52.468121532918836 0.3913029332465457
1.4678797222714488 13.07346129544696 409.2427492458268 54.889268925222524 0.3978810726437298
1.4942873588203458 13.06760156580555 366.73342108197625 57.4286296344055 0.4046521000219892
1.520497927440013 13.060466071483534 329.02133827424 60.092826378758915 0.41162577773290043
1.5464801805271085 13.051987467423883 295.456283455895 62.888958949673224 0.41881263595162943
1.5721954763883719 13.042116534920261 265.6169590221047 65.82464737901019 0.42622403584417484
1.5976189168733688 13.03079928687229 239.0592961221757 68.90807926048912 0.43387223805886754
1.622699882707796 13.017959244184311 215.3587535359032 72.14806165541323 0.4417704771683227
1.6474577527733416 13.00366091006964 194.2106417428252 75.55407806701893 0.4499330427637491
1.6718067215869157 12.987737835589003 175.33450938040656 79.13615895909506 0.45837456586560243
1.6957447720987313 12.970200919897383 158.45654476051337 82.90428860930297 0.4671074679656115
1.7192096699713557 12.950964544543805 143.37523815718473 86.8712909564182 0.476153694802004
1.7422129711719334 12.930078759928742 129.8618640815535 91.04885403448468 0.48552805188430503
1.7646934805044487 12.90744038664846 117.75037905248352 95.45081787007344 0.495251492368398
1.786621673462216 12.883021401699231 106.88763827637638 100.09108564030727 0.5053424931121673
1.8079624924951805 12.856778665100862 97.14266331056194 104.98604684861189 0.5158262514204577
1.8286749596053267 12.828660117112356 88.38098173622825 110.15219469848164 0.5267251612377892
1.8487570789882164 12.79870980650847 80.51029201928941 115.60710254944311 0.5380624272197819
1.8681465464483644 12.766820717298572 73.42632973269046 121.37113735600336 0.549868005231145
1.8868200303371065 12.732988182859236 67.04907736249318 127.46559883491952 0.562171282628382
1.904746302105732 12.69718960519431 61.29553307594765 133.91305755386162 0.5750020627183894
1.921893089738685 12.65939497385963 56.10713148684737 140.73886375473612 0.5883955138817804
1.9382107333795398 12.619524295187436 51.423187506367306 147.970824602961 0.6023904248904605
1.953713544482357 12.577707872018415 47.19506957752539 155.63759453198548 0.6170231526900882
1.9683342897185794 12.533795033392467 43.36450930455801 163.77259516333106 0.6323405850323357
1.982058410137822 12.487820632677742 39.90088884120538 172.40942395917395 0.6483837683818169
1.9948524889066637 12.439762228941085 36.765990195712696 181.58765425105665 0.6652069090404176
2.006690340776126 12.389609975706263 33.92662480079538 191.34907646625572 0.6828637996620311
2.017549600318935 12.337373568816115 31.344981429990906 201.739674079731 0.7014136073914933
2.027394535067923 12.283010978986727 29.008767106227474 212.80954888840733 0.7209196183096314
2.036212549440814 12.22656890567604 26.88488093727151 224.61371202241955 0.7414507269491595
2.043965391414681 12.167999206223016 24.955852147722855 237.2136800105584 0.7630853616918927
2.050634860176894 12.10731915341819 23.20110231541861 250.67589467577847 0.7859048897725468
2.0562105654825715 12.04457662131867 21.60589157295361 265.0735723386885 0.809998025992687
2.0606757731485144 11.97977286501464 20.154704870575507 280.4885885442442 0.8354651027249687
2.063995806362233 11.912917296747308 18.832106352099636 297.0100482434087 0.8624112757055497
2.066160905491384 11.844028935565568 17.62824974517535 314.7384392853699 0.8909576437864019
2.0671651623200287 11.77316463144805 16.53165972683823 333.78326803492394 0.9212306925800704
