M[M_sun], R[km], Lambda[1], P_c[MeV/fm^3], rho_c[fm^-3]
0.24162668629717493 15.618656898711224 2160425.4255784233 3.5677272577965504 0.1711233750220791
0.25364437171230886 15.277289115452055 1723126.3529667319 3.7848419394764994 0.1738884514290981
0.26604206702368177 14.981231861721973 1382901.147899681 4.011448435953092 0.17666722850293404
0.2788185336643866 14.723481697639494 1116416.335024852 4.247802145370384 0.1794583717039845
0.29197412134400624 14.498333125575593 905742.4968181407 4.494528549119385 0.18226845267464814
0.305511545262357 14.301151905197267 738565.067071549 4.751784238087204 0.1850931969763856
0.31942911393401396 14.128064125684444 605039.3398795578 5.0202499369731095 0.1879391890409168
0.3337284147884223 13.975873038637584 497628.02419239696 5.300151806538938 0.19080309298888615
0.3484119325537209 13.841932760030137 410947.6433819793 5.592216111297197 0.19369115769285955
0.3634769121601778 13.723880441681281 340623.7937310024 5.89661312467441 0.19659850131487044
0.37893048848341204 13.619934118538067 283246.6691063235 6.214205744747938 0.19953277951524304
0.3947656680045125 13.528373035469151 236366.04091267858 6.545248631269002 0.20249012139198955
0.41099257090066904 13.44781065744038 197830.6747215602 6.890449766467405 0.2054743321941282
0.42760304160029133 13.376964622853139 164042.69069595306 7.250511918438179 0.20848844167056568
0.4446004997112642 13.314843836656419 139774.2340461754 7.625690228772703 0.21152793475100193
0.4619818844347702 13.260482057842976 117953.48155162379 8.016941431093313 0.21459909216489886
0.47975014213225803 13.213105170019015 99793.34797809095 8.424967212619851 0.21770350498961674
0.4979090024666612 13.171938699378511 84621.558605174 8.850203384806985 0.22083856726871287
0.5164495734161346 13.136348772214511 71921.42165641347 9.293533446741375 0.22400782996139476
0.5353715642343813 13.105796940074002 61260.39367877504 9.755837775778769 0.22721414429139766
0.5546807278078592 13.079769248902974 52290.5620509939 10.237924047311651 0.23045883312677887
0.5743648206950386 13.05781134846234 44716.785006699116 10.74026262783613 0.23373858246118362
0.5944244539682932 13.03949196586013 38317.32541323219 11.264106647717806 0.23705968295211532
0.6148636108369119 13.024479582678962 32891.87314701111 11.810389234667694 0.24042368810994172
0.6356712274444664 13.012418906314627 28283.396891228207 12.380089797591443 0.24383223160953246
0.6568440297422012 13.00299682026201 24362.4507903054 12.973887329316378 0.24728314942256904
0.6783774005536131 12.995968286668184 21020.60223463792 13.593128902990227 0.250781452112905
0.7002696233621655 12.991054547573485 18165.837430959986 14.239003134482012 0.25432966840761323
0.722506141292619 12.988004572607576 15722.8000176189 14.912700238477615 0.25792978393430827
0.7450968313669394 12.98665250512259 13629.102129922641 15.615235596402782 0.2615815496796081
0.7680204670044922 12.986763155407354 11831.891637528126 16.34790440926691 0.26528714817649174
0.7912691278300014 12.988142584618613 10286.273315301034 17.112309620962634 0.2690511314692827
0.8148448456423844 12.99067574174879 8952.513596915296 17.909906971027475 0.2728759335031264
0.8387314330671986 12.9941433836183 7804.608642615215 18.742040430110357 0.27676244132021627
0.862914122784147 12.99842733561735 6811.142269137704 19.610097831014468 0.28071152051824344
0.8873992350223658 13.003366336157427 5952.899072354278 20.516145227895706 0.28472934548065215
0.912157969384675 13.008868398654837 5208.889038991918 21.461977663964774 0.28881893137380477
0.9371806362162021 13.01475773997401 4563.151161126002 22.44905197218834 0.29297997710721374
0.9624679750910193 13.020967318849813 4002.7579671298436 23.479449217755125 0.2972167250130916
0.987990585298723 13.027351950022458 3515.031595851398 24.555566389881754 0.30153506137210667
1.013735954640504 13.03380877524063 3090.712534025475 25.679313269253882 0.3059363724255133
1.0397028040467926 13.040271029312835 2720.152412858829 26.85271764162286 0.3104224067527691
1.065857164750526 13.046597600637135 2397.0484834685644 28.078846041790587 0.3150016636017832
1.0921923637114708 13.052729254987256 2114.668983626431 29.35971421435018 0.31967431427880616
1.1186930000114028 13.058556812253931 1867.4594599852119 30.69815842017604 0.3244455909961382
1.1453267923699095 13.064015479984722 1651.2138900073678 32.09749731238825 0.3293229990034438
1.1720925841887588 13.069022654135038 1461.3292967948473 33.55975928823903 0.3343047993460928
1.1989512667481141 13.073479234817164 1294.750096251555 35.08944727398532 0.3394042878386208
1.2258997401190084 13.077350870785013 1148.4624407728575 36.68853469245648 0.34461791738103537
1.2528985831154777 13.080503572065515 1019.630655983047 38.362123674740296 0.34996043038904
1.2799426899419892 13.082948119873722 906.1936589242231 40.11251076949486 0.3554287239858681
1.306995626362762 13.084552191766711 806.3408920232091 41.945063134399604 0.3610367450088424
1.334028864588448 13.085242968843227 718.1498851334527 43.863375824969715 0.36678704310264704
1.3610383429487551 13.085033162677975 640.271368642298 45.87202917012699 0.3726867639456669
1.3879781441379213 13.083780956711598 571.4650476981625 47.97641362016987 0.3787461742476676
1.4148227856009359 13.081456093005292 510.5649911905974 50.18135276355743 0.38497125703794866
1.4415554985912775 13.078010939338851 456.6168704864525 52.49194458461483 0.3913683424207768
1.4681510014961925 13.073408862671814 408.7716463632366 54.914670170026376 0.3979494482264275
1.4945619055518047 13.067535285786706 366.31501412716494 57.45572310597221 0.4047236417141156
1.5207745545624092 13.06038437406398 328.6696561102795 60.12173542067972 0.4117007007426174
1.5467588743773337 13.051890532954461 295.11759906991523 62.919817056877 0.4188911722877913
1.5724758075544107 13.04200017011049 265.30762720592264 65.85759912400695 0.4263064357389714
1.5978900727484986 13.030657519498064 238.77090721741718 68.94328131399075 0.43395877153360063
1.6229985820851875 13.017845816625844 215.10297728927446 72.18568391204111 0.44186143575797354
1.6477408162530853 13.003484234947905 193.97218734683486 75.59430488813258 0.4500287414178706
1.6720888733666792 12.987542803603192 175.13685012373415 79.17898048949793 0.45847446800612224
1.6960257421814098 12.969979171270813 158.2676373729569 82.95012265200208 0.4672127944622437
1.7195054569151886 12.950759169186837 143.19363395566617 86.92037345941588 0.47626484252224277
1.7424874793328584 12.929812196376998 129.69893942704104 91.10120542776144 0.48564451446449064
1.7649680911752683 12.90714786290403 117.60264033657448 95.50694248805212 0.49537464231226147
1.7868797529997733 12.882672703366195 106.75741101171965 100.15103235274431 0.5054718555168919
1.8082312233933604 12.85643167994581 97.0302132916608 105.05012651779194 0.5159623247322778
1.828942999963885 12.828295498738951 88.27979494997872 110.22077902663332 0.5268686060407466
1.8490157425900609 12.798303085281525 80.41743587779077 115.68077652422717 0.5382146122287516
1.868387434105444 12.766353765754138 73.33663679588254 121.4500676513744 0.5500286783877941
1.887064113586566 12.73252043419051 66.96448094871624 127.55009421447792 0.562340653812778
1.9049853494885876 12.69668867182617 61.21940056456888 134.00356062674692 0.5751807438852197
1.922124330912833 12.6588557867127 56.03895714590305 140.8360709231696 0.5885849104119067
1.9384340409524834 12.618952799849412 51.360416295309605 148.07531800601015 0.6025914231500965
1.953926877759407 12.57709181981428 47.13604796274637 155.74966936926202 0.6172355457255767
1.9685387425144536 12.533149500114828 43.315227951298674 163.8929464138907 0.6325654261194045
1.9822490327633036 12.48713133767915 39.85534559774164 172.5391280643159 0.648623252830408
1.9950327442899307 12.439034764608236 36.724207630071945 181.72719720142732 0.6654610884593902
2.0068646819804816 12.38885885204149 33.88353538692863 191.49936445903063 0.683133974189076
2.0177063565014333 12.336567811828862 31.309754831687695 201.90170675761328 0.7017011994115286
2.0275374846698853 12.282171424896864 28.975293822540387 212.98402155301267 0.7212248477979905
2.0363403936884428 12.225681403629121 26.85384328810424 224.80223962046531 0.7417766013905871
2.044078073811904 12.16707084538717 24.927975180306202 237.41718102442488 0.7634323496144566
2.050731678602184 12.106343441885507 23.174471132939008 250.8959766139051 0.7862754198379767
2.056296872229977 12.043577650921735 21.581474083909427 265.31196736170835 0.8103946058678054
2.060737059153348 11.978709276140366 20.131733338589562 280.74649501569354 0.8358881293653511
2.064034356018384 11.911793951197382 18.811289817563782 297.28985804513644 0.8628646177209809
2.066184173150319 11.84287013433985 17.609954233243652 315.0423993645291 0.8914442240887894
2.0671723953751147 11.771965095499164 16.51457755501307 334.1133832189697 0.9217520831438558
