M[M_sun], R[km], Lambda[1], P_c[MeV/fm^3], rho_c[fm^-3]
0.24162668629717493 15.618656898711224 2160425.4255784233 3.5677272577965504 0.1711233750220791
0.25364609876670025 15.277228924368636 1723057.2821979753 3.78486837733654 0.17388878096426943
0.2660457097000541 14.981152692562127 1382793.7062960924 4.011504014413677 0.17666790013583006
0.27882246278870826 14.723412747391864 1116278.1673991308 4.247888745563184 0.17945937613571727
0.2919807748596007 14.498248384486182 905735.2660240857 4.494648444353446 0.18226978773590563
0.30552022957280306 14.301010371094979 738480.5380259114 4.751941500348778 0.18509489570895013
0.31943939255117504 14.127937490555908 604940.7380688287 5.020445725590744 0.18794122042339223
0.3337414174113102 13.975713455156846 497505.08842732577 5.3003912772479165 0.19080550406157182
0.34842614792405663 13.841815342727388 410875.1339086006 5.592499862915727 0.19369390306782622
0.36349274555277983 13.72381787289267 340518.1653641178 5.896947533446587 0.19660164215282716
0.37895002652901827 13.619796902434105 283202.4629561419 6.214594858814873 0.19953632776700966
0.39478688174111315 13.528261107619482 236317.6616116834 6.545692047545388 0.2024940095537074
0.41101617649293365 13.44769729270577 197775.36476744115 6.890956046871271 0.20547864389049983
0.4276288392158413 13.37687530049199 166000.93897221645 7.251085815423512 0.20849318937324815
0.4446284802182562 13.314769409132648 139728.8010618273 7.626330156990643 0.21153302899108922
0.4620128956340372 13.260397242960849 117917.21923073611 8.0176585547811 0.21460463969639348
0.4797840704901606 13.21301361575592 99757.74860361258 8.425767125692992 0.2177095192176688
0.4979464507447544 13.171850186744368 84594.17076379144 8.851083138554882 0.2208449370617375
0.5164910055344718 13.13627804836519 71897.0618154488 9.29450728142606 0.22401468581828646
0.5354147977164156 13.10572811439738 61241.09900903872 9.756912296523957 0.2272215010291962
0.5547266485761472 13.079723133755795 52271.230459822014 10.239094762603958 0.23046655836858812
0.5744148130076713 13.057754094151084 44297.91672433326 10.741547397494063 0.2337468310803594
0.594477339228912 13.039437614250357 38299.285396593594 11.265513299186347 0.23706847173594595
0.614920727732306 13.02443702403278 32877.499822418045 11.811926080692318 0.24043303469794242
0.6357310757775494 13.012382129990145 28271.078373878005 12.38176566965303 0.2438421545723638
0.6569080373900031 13.002970909803176 24352.148775601494 12.975694531353014 0.2472934786483324
0.6784442603635169 12.995950098282306 21013.19952836204 13.595093104008908 0.25079238825793604
0.7003414786767209 12.991041541274821 18157.864509685947 14.241134869991772 0.2543412331767931
0.7225827233130413 12.987991638078544 15717.322465403084 14.915010721071779 0.2579420003267266
0.7451763152379022 12.986637005398514 13622.25496619932 15.61771421070678 0.26159421871180033
0.7681035479876608 12.986762830004196 11825.837350816617 16.35058472977182 0.2653005089019611
0.7913558808887732 12.988148476766519 10211.698479432986 17.115205104587815 0.26906521122565896
0.8149378273640332 12.990686055579703 8947.927262330031 17.913031967075447 0.27289076138592605
0.8388250959135638 12.994155683233073 7800.22271945185 18.745381076072583 0.276777789859916
0.8630137935512672 12.99843350411081 6807.671407467989 19.613697575704915 0.28072767030242934
0.8875033765492006 13.003388916656364 5949.433194927566 20.520021403317468 0.28474633148236084
0.9122651179753662 13.008891940894259 5205.955103847223 21.46614878925022 0.2888367909243734
0.9372923830395156 13.014790229758805 4560.9464992926405 22.453500668824624 0.2929984544603371
0.9625824014748202 13.020994638039785 4000.3361943881464 23.484231330630962 0.2972361465943846
0.9881107399274112 13.02738098469752 3512.8714418000036 24.560704436634154 0.30155547239270863
1.013859616818384 13.033844965807257 3088.8632589027966 25.684787357041493 0.3059574979845355
1.0398304541368188 13.040303931263972 2718.6278229313207 26.85859471359627 0.31044460927240297
1.0659899073109997 13.046629395718215 2395.7423020918795 28.085153619127546 0.3150249980730974
1.0923269808342608 13.052755566009822 2113.4004825796696 29.366429936606245 0.31969848675545354
1.1188329067784997 13.058587436843565 1857.1557291850147 30.705362493077136 0.3244710038301091
1.1454701505289053 13.064045139252288 1650.0655650595497 32.10516621737834 0.32934934860563303
1.1722407002188688 13.069048642836504 1460.4155151346292 33.56798301172488 0.3343325141421415
1.1991028255010046 13.0734988486482 1293.9728056315023 35.09826464590239 0.3394334444971556
1.2260551051744148 13.077365052358058 1147.6807876844678 36.697920118361075 0.3446481933121709
1.2530567916652509 13.080523423840097 1018.9680941322331 38.372115256613725 0.349991892922501
1.2801048815326876 13.08295469081358 905.5792020588754 40.12322211404176 0.35546186130746715
1.307160874635108 13.084558463707788 805.7450849632243 41.95646861266941 0.3610712254975744
1.3341964436666138 13.085242792037114 717.6609577120688 43.87560335999389 0.3668233896603543
1.3612084501032011 13.08502417032191 639.752781455446 45.885053132951356 0.37272463586038856
1.3881518683731398 13.083769920191179 571.0491340725621 47.990289661006344 0.3787856699391716
1.4149990998137099 13.081436622186168 510.16061286803637 50.196233098572165 0.38501295337650676
1.4417332475289026 13.077985700030709 456.2742822074659 52.50780558353489 0.3914118907812085
1.4683312763461365 13.073373342095861 408.4663370219775 54.93158209134045 0.3979949720770623
1.4947444537630707 13.067489737557379 366.0439413010931 57.47376190056489 0.40477127407034225
1.5209587469790609 13.060325682551017 328.4074971526378 60.140983241623324 0.4117505849511477
1.5463465507328669 13.05185705907577 295.5954434414202 62.75979309904586 0.5088093913753804
