M[M_sun], R[km], Lambda[1], P_c[MeV/fm^3], rho_c[fm^-3]
0.24162668629717493 15.618656898711224 2160425.4255784233 3.5677272577965504 0.1711233750220791
0.2536414532276693 15.27736203685288 1723259.626902179 3.784793965858745 0.173887853461096
0.26603720796795977 14.98132820723817 1383179.3334939207 4.0113475857847956 0.17666600978816788
0.2788108442230826 14.723585023458662 1116506.1990151124 4.247645006682758 0.17945654913201098
0.2919627912896507 14.498537448612431 906006.3227210955 4.494310998421635 0.1822660301971378
0.3054969156813324 14.301327779276606 738748.9553682266 4.751498888469189 0.1850901146559131
0.31941144345972833 14.12826115293193 605173.909841294 5.019894686429242 0.18793550317941007
0.33370688848072216 13.976063383092546 497742.70813121134 5.299717302243102 0.19079871825160008
0.3483861017845333 13.842146282686036 411077.32374436664 5.591701268351758 0.19368617644573402
0.36344687128824793 13.724105323242306 340716.4258295754 5.896006376369046 0.19659280260638481
0.3788983524997431 13.620104471973157 283365.14581884386 6.213499748529531 0.19952634167980596
0.3947274136170577 13.528596347482509 236455.059949021 6.544444120094543 0.2024830669158309
0.4109498544348266 13.44800516649171 197921.00496328966 6.88953120926249 0.20546650937551356
0.4275555343969807 13.377156806660873 166123.83414859924 7.24947069555126 0.20847982790046476
0.44454783682413235 13.315021104610993 139856.44953105107 7.624529217990947 0.21151869235865167
0.461925865559916 13.260668966591311 118014.07227890185 8.015640381594157 0.21458902749516953
0.47968803660072057 13.213246939101436 99844.42728927809 8.423515979002948 0.21769259374160502
0.497841502605466 13.172073206466283 84672.37485358855 8.848607317957391 0.2208270110627749
0.5163768472468436 13.136476642281071 71962.25799057395 9.291766717312587 0.22399539207607336
0.5352922077007327 13.105908396831007 61302.098775207465 9.753888404880376 0.2272007978663651
0.5545952746013411 13.079887886003926 52320.90048629766 10.235781549611648 0.23044457869739146
0.5742732392568578 13.05790109618952 44747.78508353681 10.737931879221351 0.2337236183331012
0.5943282514638253 13.039583849375175 38345.52252889332 11.261554818555759 0.23704373907733217
0.6147622405417685 13.024557642687533 32916.146999644734 11.807601249973283 0.24040673251134995
0.6355600690953005 13.012453014523926 28307.220522688574 12.377049641889688 0.2438142306220338
0.6567283024914355 13.003040607109542 24382.154321399183 12.970608963483164 0.2472644116278236
0.6782564222982413 12.99600136990256 21038.148344269594 13.58956577353809 0.250761613562735
0.7001403151611514 12.991071245146017 18181.701017599196 14.23513613649712 0.2543086897548163
0.7223696282915901 12.988008120419035 15737.043411410765 14.908509039519677 0.2579076234855332
0.7449541463182688 12.98665722305874 13641.409627215537 15.610739450978995 0.26155856836661284
0.7678711282815974 12.986744335163076 11841.52741977975 16.34304243029662 0.2652629124307513
0.7911119462903065 12.988128828762077 10225.757598836024 17.107057407188567 0.2690255917322482
0.8146818914452321 12.990655040400618 8961.453108558439 17.904238503419318 0.27284903702964053
0.8385593774310592 12.994117893788468 7811.5507141259595 18.735980850529277 0.2767346006873519
0.8627360809411234 12.998385960810944 6818.64696294473 19.603568350490942 0.2806822268570623
0.887207176834069 13.003329776620705 5958.987194165422 20.509114420243662 0.28469853539137696
0.911963173550212 13.008829076403005 5214.3564053331 21.454411951009593 0.28878653718186276
0.9369786444161781 13.01470916784389 4568.058810668514 22.440982869821323 0.2929464626498314
0.9622535908332404 13.020905923831906 4006.9144101123707 23.470775465061173 0.29718149832617846
0.9877742060696737 13.027300395270096 3518.8073489955364 24.54624716046652 0.30149804049768586
1.0135128588801516 13.033760362879741 3094.1603102432937 25.669384636431175 0.30589805591930375
1.0394699048671092 13.040215558395595 2723.2694837110826 26.842058226754393 0.31038213740283205
1.0656211740899582 13.04654526148953 2399.8005665522955 28.067405948825837 0.3149593417233729
1.0919454351363957 13.052667219476037 2117.252279220248 29.347533988756073 0.319630472945364
1.1184385576851126 13.058510171608432 1869.816195660502 30.685092643823275 0.3243995006234126
1.1450663699460613 13.063971316786942 1653.0632608570093 32.08358862893875 0.32927521013706157
1.171825698163507 13.068981072593482 1463.1602782891005 33.544844552376006 0.3342545351484608
1.1986769762825453 13.073436118867555 1296.3166319107925 35.073456092240576 0.33935140933581015
1.2256196188430775 13.077313079860524 1149.833728596561 36.67151346957562 0.3445630095508504
1.2526111995106433 13.08047372378495 1020.9456696943836 38.34393916448855 0.34990299471845987
1.279650541509267 13.082917629091584 907.4818909747419 40.09308535958435 0.3553686282572151
1.306690091019726 13.084515738868928 807.372420490082 41.92437911848642 0.3609742140951222
1.3337229974062255 13.085232860283268 719.1502313369289 43.841201304613044 0.36672112896032955
1.3607281057412697 13.085038059695568 641.1128533576288 45.84841060774438 0.3726180843745975
1.3876564140434404 13.083788790765867 572.2417766228263 47.95125013561278 0.37867455084766855
1.414510336784502 13.081502756676446 511.218597823149 50.154368436024384 0.3848956439784667
1.441230809780558 13.078062419283354 457.2117063321868 52.46318225036017 0.39128937182722884
1.4678243351497677 13.073472125082683 409.33108133331393 54.884002474882735 0.3978668963065655
1.494230205552901 13.067614733397743 366.82961730714885 57.42301238002846 0.40463726737559874
1.520440056753962 13.060484791566875 329.098709959389 60.08683275469433 0.4116102441723189
1.546422901530192 13.052007780009856 295.53221568370805 62.882561286535925 0.41879635339030824
1.5721378212762838 13.042139953903254 265.6795900569443 65.81781571176369 0.42620695241923173
1.5975605372209396 13.030827501626032 239.11827509959056 68.90078111697666 0.433854297806683
1.6226484166598893 13.018025332770193 215.4073951332052 72.14026182312152 0.4417516196672487
1.6473990424364302 13.003695982007805 194.25402048192123 75.54573833557662 0.4499132027402854
1.6717487272313016 12.987778410666612 175.3706889650593 79.1272813695642 0.45835385455079314
1.695686287217813 12.970247260958603 158.4937482838856 82.89478657124141 0.4670856323098205
1.7191588234288442 12.95104529735405 143.40694084134836 86.86111556976739 0.4761306525576254
1.7421553881669474 12.930133376606939 129.891648916718 91.03800106329332 0.48550390801823934
1.7646412602339385 12.907509977202334 117.77570073427903 95.43918279485963 0.4952259624153929
1.7865662329073337 12.883086916015364 106.91128073874332 100.07865833104027 0.5053156755179126
1.8079071575874788 12.856849726491708 97.16617642521251 104.97276288124887 0.5157980428879181
1.8286202632749178 12.828737456821866 88.40386896095035 110.13792761489542 0.5266952409031528
1.848703228382203 12.798793376237064 80.53089513216251 115.59182997711532 0.5380308793555122
1.86809414827054 12.766910555475619 73.44227822506309 121.35477532536828 0.5498346981327873
1.886769317269083 12.7330860625393 67.06587669904485 127.4480555108513 0.5621360733169578
1.9046963838265976 12.697293589357848 61.30945827809504 133.89429691096214 0.5749650233841779
1.9218437865844389 12.659505578023106 56.11999482467504 140.7187136367653 0.5883562537892707
1.9381642884027301 12.619645093255167 51.43698274038637 147.94916438023128 0.6023487603743766
1.9536699196085958 12.57783477466139 47.20390600669411 155.61436302862236 0.6169791266657089
1.968292246433703 12.533928688274075 43.37552158769342 163.74757864813236 0.6322937432579718
1.9820177120769704 12.487961388979771 39.91368258776275 172.38253883257696 0.6483341279351145
1.994815136350684 12.439911204633411 36.77571741536463 181.5587300858506 0.6651542232724384
2.0066546159276233 12.389766556073004 33.93356238594287 191.31792549610557 0.6828077991893925
2.0175176259945693 12.33754078017281 31.354588411874303 201.70608918050132 0.7013539975082378
2.0273645514551064 12.283189925706397 29.015718556930725 212.77338598708317 0.7208563534773225
2.036185742976442 12.226753676151185 26.89164609161874 224.5746365260963 0.7413831840235091
2.0439419957736638 12.168192281372013 24.962312831979123 237.17150161158543 0.76301344364707
2.0506138036402444 12.107522089666688 23.206300920023185 250.6302172218937 0.7858278879101785
2.0561934362830274 12.044788018688566 21.60990019588735 265.02414716167675 0.8099157796265972
2.060660522986723 11.979995186432093 20.157831930141658 280.43512733429395 0.8353773993458026
2.0639859698420135 11.913146264984734 18.836121464437003 296.95205737884316 0.8623173201140858
2.066154791279677 11.844268286526027 17.63218750348983 314.67544432444095 0.8908568012441098
2.067162917596023 11.77341191963468 16.535807233825963 333.71485364283086 0.9211226375126624
