M[M_sun], R[km], Lambda[1], P_c[MeV/fm^3], rho_c[fm^-3]
0.24162668629717493 15.618656898711224 2160425.4255784233 3.5677272577965504 0.1711233750220791
0.2536375818161865 15.277458800009247 1723360.6788223 3.7846966633110526 0.17388664063177933
0.26602551627155513 14.981588209675364 1383428.7339116072 4.011143041880045 0.1766635379957925
0.2787928521570047 14.723950280222612 1116758.840910455 4.247326307012685 0.17945285269610828
0.2919391533347668 14.498926181447505 906332.8711324213 4.49386978588881 0.18226111719318472
0.30546645933734534 14.301731173916638 739033.0978485075 4.750920188623015 0.18508386359310916
0.31937407638292253 14.128665492160428 605471.995552823 5.019174242560725 0.18792802829620842
0.33366276730335126 13.97650374555242 498095.90201256657 5.298836155037802 0.19078984656133033
0.34833400917528073 13.842587158145829 411349.93522564654 5.590657224117266 0.19367607503055864
0.3633854188556052 13.724566405428659 340964.5362209596 5.894775988750121 0.1965812465454901
0.3788295332991585 13.62056878238867 283588.429674562 6.212068137347521 0.19951328710959812
0.3946490743261991 13.528998057742504 236675.13325783098 6.54281277801017 0.20246876224958615
0.410863608414787 13.448375042305084 198092.78099642758 6.887668655987255 0.2054506470902315
0.4274590773011681 13.377559241815323 166298.02503336984 7.247359464324258 0.20846236222558598
0.4444412191855525 13.315391880738025 139996.90024599963 7.622175149817995 0.2114999524623341
0.4618093629241184 13.261007510050565 118145.95028129927 8.013002432725475 0.21456862082798023
0.47956148123802295 13.213558436630297 99960.16837135398 8.420573592626953 0.21767047110943824
0.4977045298636813 13.1723589905111 84774.4119532487 8.845371347851808 0.22080358125658686
0.5162288260514929 13.136732587632501 72060.67232354658 9.288184817621186 0.22397017527894048
0.5351317903930529 13.106150499071592 61381.09632410387 9.749936305662764 0.22717373970315333
0.5544237342042485 13.080105317609018 52396.18236107695 10.231433506907136 0.23041562242915636
0.5740889191994382 13.058070008319415 44408.549191118305 10.733206787628301 0.23369328178142362
0.5941352176412125 13.039738426866641 38065.84692698813 11.256381651605151 0.2370114170366096
0.6145531347776305 13.024669759870392 32965.78761362824 11.801949468041496 0.24037236024741473
0.6353379095829008 13.0125987216666 28352.348086045058 12.370886800956416 0.2437777399835668
0.6564886692337967 13.003123664633957 24422.53574867169 12.963963362901637 0.24722642810005635
0.6780077046549802 12.996074491415712 21074.13613627445 13.582343089994431 0.2507213995958366
0.6998781344585006 12.991115829969594 18212.86694016661 14.227297670319755 0.25426616569324767
0.722094563135471 12.988043308676405 15765.159338996753 14.900013605643231 0.25786270492425045
0.7446639077231371 12.986655768877641 13665.698461851616 15.601626070948171 0.26151198681303917
0.7675658630939491 12.986734665548912 11863.69206759852 16.333187754320193 0.2652137893426469
0.7907923021459433 12.988109292201946 10314.147329982397 17.096412012219883 0.26897382678134873
0.8143461129267171 12.990620060116798 8978.858296767901 17.892749691202884 0.272794523437163
0.838210581090235 12.994059733140803 7826.918983282375 18.72369956452954 0.2766781745326911
0.8623726615576137 12.99831478504298 6832.26584302966 19.59033499411833 0.2806228571328595
0.8868274135317316 13.003245758292072 5971.15022265657 20.494865348708 0.2846360937505542
0.9115687177385406 13.008732176567513 5225.273757433549 21.439079163256746 0.2887208866248809
0.9365691935170877 13.014617456078579 4578.216368506208 22.424630213551456 0.29287854302547695
0.9618291285768513 13.02080529682006 3993.1361455092806 23.453197850844795 0.2971101104120277
0.9873347692896904 13.02719561720012 3526.5665340762325 24.527361915246082 0.3014230183836719
1.0130587715723725 13.0336512874119 3100.8002493703907 25.649264831618215 0.3058204097176749
1.0390015874858929 13.040100625148261 2729.505458239139 26.820458052004263 0.3103005358321597
1.0651364699001418 13.046435993442728 2405.3729750237158 28.044224373766482 0.31487358299710694
1.0914460024968737 13.052558769280987 2122.2699818494093 29.322853133655915 0.3195416370211257
1.1179249399741154 13.058398198488938 1874.3306029435364 30.658618045037116 0.3243061097606832
1.1445371773691893 13.063859649493065 1657.1494644236068 32.055242767156415 0.3291773193637413
1.1712831747856023 13.068882256875625 1466.728396853366 33.514624854820234 0.33415269165191663
1.1981253932666478 13.073366934408371 1299.6491157005194 35.04105616421679 0.33924427155747583
1.2250498334201547 13.077234906941765 1152.7602837652385 36.63702727956935 0.3444517624402377
1.2520287472083855 13.080422706692282 1023.4833457859704 38.30697022729079 0.3497858852298142
1.2790543943445232 13.082882433815138 909.7198193073062 40.05372998753021 0.35524687588385995
1.306081947173041 13.084484061895354 809.4665776865947 41.88247475509382 0.36084753085610316
1.3331048333188957 13.085227593025271 721.0181741663098 43.79627850364429 0.36658759516348854
1.3600990992918254 13.085055248987546 642.8710416193168 45.80056343508553 0.37247895129605263
1.387018801735132 13.083832373797124 573.8080781953054 47.900274382707806 0.37852945739956995
1.4138529876167614 13.081554533633023 512.627218855061 50.09970560328215 0.3847424726971543
1.4405806965214247 13.078178723140947 458.47609523409807 52.404919051277844 0.39112940291188303
1.4671539007334833 13.073594181232622 410.49348176953237 54.82188113878996 0.39769967684208246
1.4935600371412443 13.067780479023714 367.8466610474428 57.3567542669299 0.404462309452008
1.5197630615824802 13.06068863445591 330.0169901084041 60.01613648782403 0.4114270220128233
1.545740163366638 13.05225057651203 296.3739757750062 62.80710069867869 0.4186043001948288
1.5714513572908937 13.042423517763938 266.45707736459144 65.73723758461713 0.4260054568929574
1.5968653460996927 13.031143429536211 239.7950447445765 68.81470269030481 0.43364270033953173
1.6219586740183232 13.018388153190651 216.0292910997638 72.04826804759504 0.4415292081260882
1.6466977097872244 13.004115620564203 194.8189104768217 75.44737883995997 0.44967920783116777
1.6710628021225058 12.988256321777936 175.89160386924507 79.02221564513901 0.45810806503449547
1.6949942742434103 12.970780140969373 158.96955910054658 82.78272312969698 0.46682811084753306
1.7184824418705436 12.95164274167121 143.81977011650687 86.74111357110378 0.47585890707275896
1.7414829202015518 12.930804408322913 130.27893699996937 90.91001053640632 0.4852191762075352
1.7639665422344668 12.908225903964583 118.12875429967107 95.3019720121407 0.49492489132042855
1.7858993270085353 12.883862509455868 107.22915202573948 99.93210785763863 0.5049994259542242
1.8072360488699986 12.857670467283242 97.46066262584364 104.81611349593696 0.5154653975898582
1.8279831160705498 12.829681711335006 88.66824918547394 109.96968920560762 0.526342418304604
1.848059073803695 12.799759230659316 80.77041831151932 115.41173885001776 0.537658873231599
1.8674740051798522 12.7679779602127 73.66714748005045 121.16184203030481 0.5494419566462031
1.886162606069223 12.734236946797857 67.26323388534398 127.24119795530677 0.5617209118535252
1.9040978674269666 12.698487676019488 61.49311086969941 133.67291272512344 0.574527665602383
1.9212658952067578 12.660786650951549 56.28995396990433 140.48113005604492 0.5878933506255578
1.937624450264294 12.621071988672254 51.590904252812585 147.6937824305351 0.6018575204880916
1.953137124071115 12.57929082665849 47.344093461519314 155.340461823833 0.6164600564647359
1.9677906554289988 12.53549787026304 43.50452624870414 163.45264038378224 0.6317414908151264
1.981546286291403 12.489636653306576 40.03016479185086 172.0655785070023 0.647748895349666
1.9943828244042594 12.441721204158144 36.882929972490366 181.21774002918877 0.6645331051561341
2.00624044567864 12.391635010673745 34.032798237762215 190.95069387959143 0.6821476225081042
2.0171280962564633 12.339492735373918 31.44582517092642 201.31017625907518 0.7006512911262958
2.027011093129259 12.285249757496898 29.099785845402963 212.3465529891463 0.7201088070677218
2.0358714207591238 12.228928888687074 26.969850609698586 224.1140258049258 0.7405870074263798
2.0436656232705777 12.170473720080837 25.032655048978295 236.67398595177303 0.7621645988898034
2.050375913467862 12.109913962547544 23.272644403041028 250.09181947639647 0.7849202710101052
2.0560033414626 12.047305754733264 21.671407998095123 264.441594544357 0.8089463782257834
2.0604990885460914 11.98258351087488 20.214311040321746 279.8039953560007 0.8343403508709201
2.0638705664563646 11.915850302261722 18.887096581179723 296.2685820927165 0.8612099520367644
2.066089474586775 11.847094655056306 17.679061685130794 313.93302924566655 0.8896683407247996
2.06714518353099 11.776352666984854 16.579281179905617 332.90859863090355 0.9198492221245191
