M[M_sun], R[km], Lambda[1], P_c[MeV/fm^3], rho_c[fm^-3]
0.24162668629717493 15.618656898711224 2160425.4255784233 3.5677272577965504 0.1711233750220791
0.25364155309302144 15.277358969093227 1723263.0221506928 3.7847951767852352 0.17388786855471053
0.2660379722719787 14.981271143597914 1383030.2485881515 4.0113501313728905 0.1766660405500977
0.27881040937437973 14.723593103069536 1116531.7781072597 4.247648973031976 0.17945659513568474
0.29196327773300096 14.49854088883068 906041.9135985365 4.494316489589559 0.18226609134256708
0.30549773952365256 14.30129232860419 738762.8272857298 4.7515060908802775 0.18509019245569885
0.31941188424146016 14.128248478985492 605219.2940346062 5.019903653114505 0.1879355962122305
0.33370735928077105 13.976092132563368 497762.9858293058 5.299728269239662 0.1907988286710579
0.3483869128892645 13.842144272895434 411070.8567418617 5.591714263016983 0.19368630217269478
0.36344740279683146 13.724096358782543 340700.88045393885 5.896021690608721 0.1965929464409647
0.3788992257820078 13.620101354631053 283347.2868352851 6.2135175676312455 0.199526504168558
0.3947284309509309 13.528570781659855 236463.80793192406 6.544464425533155 0.20248324496709622
0.41095093368084185 13.448000215801637 197918.77654527017 6.889554392983052 0.20546670681780654
0.4275569202653968 13.377149471395393 166132.16307854606 7.249496975062453 0.208480045304126
0.4445492227818684 13.31501253265507 139842.53672904454 7.624558520636524 0.211518925626552
0.46192736198280204 13.26066369546948 118013.48340794086 8.015673218415206 0.21458928151452777
0.47968951571987223 13.213250405298943 99840.79896846693 8.423552606002081 0.2176928691254349
0.4978431700455146 13.17206318239925 84668.53919898975 8.84864760006683 0.22082730272245849
0.5163785055052857 13.13648068085368 71964.19203541634 9.291811306333502 0.2239957059855604
0.5352946542999144 13.105900142068938 61298.488288591485 9.753937603072806 0.2272011347032326
0.5545973559547281 13.07988165990567 52319.34004802936 10.235835677599292 0.23044493916867378
0.5742755922034181 13.057912206797837 44748.08115451994 10.737990701809164 0.2337239959923359
0.5943302504857398 13.03957191694154 38343.63350678668 11.2616192202216 0.2370441414601058
0.6147648961549568 13.024529528446799 32914.47547510512 11.807671611087324 0.24040716042431826
0.6355618716896291 13.01247073502647 28305.546229010877 12.37712636654883 0.24381468491443378
0.6567304096377012 13.00304538996367 24381.348021108373 12.97069169936115 0.2472648845121747
0.6782596687852271 12.995997771776576 21037.606260785527 13.58965569531901 0.25076211422311967
0.7001435716881657 12.9910771024808 18180.841817322907 14.23523372621788 0.25430921918381433
0.7223738002937188 12.987998775170308 15736.652633806443 14.908614810184343 0.25790818273490784
0.7449573825592366 12.986646047547207 13640.856247158728 15.610852916700743 0.26155914832811766
0.7678740700261821 12.986761935862928 11841.485693535365 16.343165127377993 0.2652635240449284
0.7911147384591365 12.988118807990173 10293.967723964231 17.10718995127821 0.26902623624927297
0.8146852729011655 12.99065673950268 8961.060679104647 17.904381550976698 0.2728497157800719
0.838563907793977 12.994117399893167 7811.168657403102 18.73613376713846 0.27673530326004986
0.8627410118447837 12.998376660557295 6818.49625380416 19.60373312407369 0.2806829660922108
0.8872108663835914 13.003333425168233 5958.679414362549 20.509291843661945 0.2846993128883058
0.9119684477705746 13.00881618540281 5214.125694608715 21.454602871410525 0.2887873546477315
0.9369836907464362 13.014708541255159 4567.80368048017 22.44118649199463 0.2929473083804144
0.962258722488814 13.02091167162655 4007.077767470472 23.470994343810037 0.29718238725781276
0.9877793180657864 13.027301179939446 3518.6874230396666 24.546482325777177 0.3014989746978269
1.0135181413839198 13.033761186272145 3093.9976454938633 25.669635178136637 0.30589902280799675
1.03947675998137 13.040215240778181 2723.100625706927 26.842327207127326 0.31038315356224583
1.065626966499545 13.046553326185272 2399.709820482313 28.06769462663086 0.3149604096681004
1.0919516788454013 13.052673465010969 2117.169633654115 29.347841341029778 0.3196315792248341
1.1184461769543992 13.058508797851795 1869.8066212048336 30.68542233921108 0.3244006636452568
1.1450720148227291 13.063966684698782 1653.1067910616928 32.08393959156781 0.32927641601008656
1.1718320924587688 13.068980631097356 1463.112241904208 33.5452208980255 0.33425580347210243
1.1986839676827585 13.073437244330313 1296.3261908168904 35.07385959669245 0.33935274361564216
1.2256266582006068 13.077306580326566 1149.8069195269002 36.671942962113526 0.3445643950272937
1.2526179473865395 13.080481792363802 1020.9084418732962 38.34439958541433 0.34990445323101843
1.2796563730544743 13.082925306048713 907.367116754634 40.09357550891416 0.3553701446154932
1.3066970890730623 13.084517903980625 807.3378622565398 41.92490102178554 0.36097579188786344
1.3337303462643237 13.085235975057014 719.1108266547434 43.841760811731234 0.3667227921048406
1.3607356636569858 13.085038465093778 641.0921168087572 45.849006546588036 0.37261981728380267
1.3876646653106297 13.083785580733611 572.2348763735561 47.95188505093797 0.3786763580216392
1.414517675773272 13.08150441906558 511.18501979019845 50.155049287929174 0.38489755180053536
1.4412391772704196 13.078060597730888 457.19603104154635 52.46390795827078 0.39129136434925216
1.4678326643042228 13.073472854444653 409.3168000128714 54.88477625126295 0.39786897917342046
1.4942387260693863 13.067612616030344 366.8122277475768 57.42383769751194 0.4046394466684651
1.52044946793142 13.060479428721536 329.0926352002636 60.08771336937398 0.41161252644450147
1.5464314405416324 13.0520051100856 295.5193729109512 62.883501263576996 0.41879874570660924
1.572146440792645 13.04213759180715 265.672386528974 65.81881945359812 0.42620946239925156
1.5975690744826099 13.030823225018805 239.1056562774851 68.90185339437095 0.4338569336724799
1.6226566742631159 13.018021963966152 215.40605492845145 72.14140780944105 0.44175439029582675
1.6474072933844286 13.003692351958653 194.25238484155574 75.54696364461596 0.44991611772145224
1.6717573683614013 12.987774045532918 175.3670339900583 79.12858570148698 0.4583568975422465
1.6956958349993296 12.970239862929095 158.4915939156069 82.89618264769388 0.4670888404894422
1.7191579061333373 12.95100809059998 143.39494825096796 86.86261057500805 0.4761340380089389
1.7421642004201963 12.930124200832273 129.8889334314088 91.03959561969606 0.4855074553193003
1.7646446131942783 12.907493044143324 117.7690643291079 95.44089225805706 0.4952297133593526
1.786574638523289 12.883076719743158 106.90695058306484 100.08048418934676 0.5053196156409254
1.8079149795507836 12.856839363792574 97.1627886232724 104.9747145996213 0.5158021873659728
1.8286282003987218 12.828725844387593 88.4038115150641 110.14002377198517 0.5266996368766674
1.848713353234768 12.798779333562027 80.53130341351677 115.59407385984758 0.5380355144429326
1.8681018590620195 12.766897798664624 73.44220686317408 121.35717927016866 0.5498395916834534
1.8867765041086362 12.733071789542212 67.06192578354971 127.45063300968336 0.5621412463365475
1.9047035559401009 12.697277812229002 61.30660261842536 133.89705325660083 0.5749704652663064
1.9218508643700525 12.6594900362348 56.11970185198581 140.72167412136537 0.588362021939087
1.9381716352279978 12.619623624705342 51.43313354796111 147.95234672597408 0.6023548817747444
1.953676632548236 12.577815422849202 47.20351397321416 155.6177762232076 0.6169855950111135
1.9682983466188348 12.533909198668692 43.373477078680004 163.75125409140495 0.6323006252830298
1.9820246879117682 12.487939690231435 39.912305649936904 172.38648880652923 0.6483414211301362
1.9948218960319324 12.439888133063471 36.774599246884584 181.56297962841458 0.665161963873142
2.0066597333376075 12.389744500957077 33.93191406747269 191.32250219246905 0.6828160267713344
2.0175228274066774 12.337515507348218 31.353022681759672 201.71102345965747 0.7013627553670134
2.027368868558983 12.283164472243412 29.014778949205603 212.7786990152354 0.7208656483022063
2.0361892773217263 12.226726414034859 26.89087200363846 224.5803774584593 0.7413931073617708
2.0439454817896996 12.16816447198658 24.961525712077005 237.1776984066068 0.7630240097518287
2.050622472143082 12.107525937941936 23.206802962891842 250.33142814977566 0.7852545821904109
2.0543694487585005 12.048795141591224 21.816917451905994 265.87285000720095 1.2647339553338133
