M[M_sun], R[km], Lambda[1], P_c[MeV/fm^3], rho_c[fm^-3]
0.24162668629717493 15.618656898711224 2160425.4255784233 3.5677272577965504 0.1711233750220791
0.25364136205685195 15.277379556573838 1723227.090616052 3.7847885024928307 0.1738877853628755
0.2660363253775604 14.981331462807457 1383080.7403405155 4.0113361008087125 0.17666587099900988
0.2788090283456247 14.723644784929927 1116605.748327185 4.247627111654517 0.1794563415766506
0.29196206681958 14.498518429964877 906011.7442541033 4.494286223878639 0.1822657543268517
0.3054954996578456 14.301350232978193 738747.476554736 4.7514663933365116 0.1850897636464623
0.3194129182403821 14.128196178795143 605155.753621186 5.019854231462884 0.18793508344351992
0.33370512245416506 13.976108932202685 497787.76670474454 5.299667822536083 0.19079822007305208
0.3483836099100118 13.842167845815629 411092.92350825417 5.591642640492468 0.19368560920506742
0.36344342354724507 13.724131108580924 340742.46155993355 5.89593728339496 0.19659215367055058
0.37889456455711756 13.620128229532002 283378.44046187494 6.213419354506186 0.19952560858311377
0.3947233191889523 13.528595125362202 236477.9436950588 6.544352508617837 0.20248226360694122
0.41094498210932284 13.448027417476357 197930.77025103473 6.889426612037687 0.2054656185816546
0.42754900065460827 13.3772013939768 166137.03508238998 7.249352131280783 0.20847884704864053
0.4445423652638593 13.31503800580357 139854.51494030695 7.6243970144903725 0.21151763993378053
0.4619194161956994 13.260678576540135 118027.32474759407 8.0154922332647 0.2145878814480684
0.4796803598549139 13.213273425719299 99851.20499433596 8.423350730884618 0.2176913513067678
0.49783376050932704 13.172087375611246 84675.61353579024 8.84842557944092 0.22082569519826478
0.516371008189739 13.136464087388685 71969.6786552272 9.291565547760818 0.22399397582988745
0.535282657736279 13.1059272247066 61303.478565490404 9.753666440647283 0.22719927818173283
0.5545854209807126 13.079904673240295 52324.25885043076 10.235537344205236 0.2304429523846496
0.5742633825925673 13.057907555209125 44751.69152266639 10.737666493761017 0.23372191447623972
0.5943182014833084 13.039575678445898 38013.308070301675 11.261264262691432 0.23704192367903387
0.6147500945178053 13.024543819390692 32919.14139012275 11.807283807673443 0.24040480193252614
0.6355466924652394 13.01247498585811 28309.376937160876 12.37670349008233 0.24381218103149693
0.6567149274104744 13.003047706248902 24383.974095816375 12.970235691723587 0.24726227815951313
0.6782417780758573 12.996002156503069 21039.867667426595 13.589160082231153 0.25075935478222916
0.7001252811797023 12.991083979840967 18182.77366842136 14.234695850954381 0.25430630118425884
0.7223547812012222 12.988019622205933 15739.40331948991 14.90803184534822 0.25790510038006903
0.7449384061168403 12.986654203739638 13642.771064302766 15.610227540285134 0.2615559518187096
0.7678532385514545 12.986750435417456 11843.140530523542 16.342488872080114 0.26526015308187917
0.7910935545612435 12.988126534307575 10295.659233500013 17.10645942399038 0.26902268394244955
0.8146625635551835 12.990645288555896 8962.37479164642 17.903593133668927 0.27284597479632106
0.8385402867869671 12.994111460370334 7812.200542326902 18.735290956405866 0.2767314309808156
0.8627157119533342 12.998383544841575 6819.314381001295 19.602824963574953 0.28067889174879984
0.887185836483429 13.003325996026252 5959.732337497781 20.50831396360754 0.28469502766628474
0.9119423626577712 13.00881914005683 5215.009788755035 21.45355060282723 0.2887828491383811
0.9369556433041133 13.014701761527332 4568.497136962952 22.440064217669917 0.2929426470917956
0.9622289980549018 13.020904353557642 4007.489619243903 23.46978798313066 0.29717748786864917
0.987750759279062 13.027292024925115 3519.3792324530805 24.545186202087734 0.30149382581370754
1.0134865507491133 13.033751732381996 3094.193864374274 25.66825430778185 0.30589369376335696
1.0394450395836154 13.040202218269084 2723.6077783955975 26.840844712676773 0.3103775529651637
1.0655938236128288 13.046540903720667 2400.0831384837848 28.066103570563726 0.31495452365986387
1.0919181579459885 13.052663666855862 2117.410368912438 29.346147361337856 0.319625481938052
1.11841099020526 13.058501130205286 1870.1135586541632 30.683605216575447 0.32439425362741303
1.145036528137032 13.063962900444645 1653.4544453632138 32.08200525556892 0.3292697698221188
1.1717947434873086 13.06897762628987 1463.3736689154764 33.543146665077224 0.3342488130932044
1.1986456102459098 13.07343275319429 1296.5275786344894 35.07163567985317 0.3393453897255599
1.2255879507203884 13.077305592134655 1150.0126492105082 36.66957581365723 0.34455675897280036
1.2525780985046422 13.080477988562286 1021.0418859409742 38.34186197761423 0.3498964146458067
1.2796163616974785 13.082920502927431 907.5124227882051 40.09087405532822 0.3553617872205957
1.3066561342916763 13.084517324461704 807.4700198427036 41.92202455883878 0.36096709590459314
1.3336878517981063 13.085231790658161 719.2184721103051 43.83867709899542 0.36671362571581095
1.3606934905591725 13.08503607790912 641.2195721384729 45.84572204387763 0.37261026639608674
1.3876201124700847 13.083791776691216 572.317298117049 47.94838573329591 0.37866639783402556
1.414472968309633 13.081507580656105 511.2853721845915 50.15129679615294 0.3848870369050452
1.4412018133261268 13.078083907908773 457.297355794016 52.45990824774659 0.39128038264271475
1.4677856408889483 13.073479672663309 409.4002535204852 54.88051161716072 0.39785749954539495
1.4941929801975846 13.06762280538781 366.88166549705915 57.41928900115443 0.4046274356039699
1.5204029889864605 13.060492251910613 329.150327220827 60.0828599098881 0.4115999478265999
1.5463850747392482 13.05202135545705 295.58013030400895 62.87832063673901 0.41878556059942845
1.5720989297104064 13.042155367774468 265.7238130937038 65.81328739645126 0.42619562880934747
1.597521776411715 13.030844878922007 239.15936972225816 68.89594361401211 0.4338424062861916
1.6226089419861265 13.018045241915464 215.45285135769453 72.13509179418388 0.4417391201900038
1.64736088481352 13.00372012764674 194.28902975294682 75.54021045551205 0.44990005204461325
1.6717101634195246 12.987806675635253 175.41404105903763 79.12139699086666 0.45834012636261345
1.6956482794886927 12.970277867961741 158.51867619709853 82.8884883037952 0.4670711589095726
1.719113565979531 12.95105260840905 143.42793439947343 86.8543710038734 0.476115379434265
1.742117741228869 12.930170376972885 129.91774871089166 91.03080739112124 0.485487904745552
1.7646026303152684 12.907550989215242 117.79400077024631 95.43147074424674 0.49520904045433095
1.7865277339023686 12.883130102853354 106.9236004135594 100.07042118772046 0.5052979001199868
1.807869314808739 12.85689861400829 97.18353012910043 104.9639579469946 0.5157793455915732
1.8285837931989148 12.828789308111352 88.41841844529299 110.12847107844767 0.5266754090480081
1.848668501577989 12.798850319686668 80.54956778348576 115.58170701038674 0.5380099687994182
1.8680588403845455 12.766971439771678 73.45580985032693 121.34393027677962 0.5498126215881277
1.8867355985862297 12.733150398268771 67.07620493194162 127.43642751615192 0.5621127360243775
1.9046649565208493 12.697361480354612 61.32164877342066 133.88186209322583 0.5749404731929897
1.9218128439624944 12.659578751097706 56.13063214488243 140.70535790014034 0.5883302317353953
1.938140986561291 12.61975032894137 51.445024081856204 147.9348077779176 0.6023211447355407
1.9536354803348137 12.577906623633217 47.21158167564619 155.5989650155888 0.6169499458896474
1.968266961971234 12.534015946804402 43.38330139583413 163.7309975771135 0.6322626962963463
1.9819951276933772 12.488054918124536 39.90830208278246 172.36471929786492 0.6483012261126163
1.9947910396435937 12.44001018545466 36.78101809803488 181.5395591392999 0.6651193031274761
2.0066332218144227 12.389871609111259 33.940469605238945 191.2972786990483 0.6827706821947016
2.0174958855752014 12.337651745813082 31.358657324152148 201.6838292660678 0.7013144883558777
2.0273456264169023 12.283306412430615 29.02032729879878 212.74941747264162 0.7208144219952977
2.036168778296595 12.226875455152395 26.896523327810762 224.5487376717076 0.741338417237134
2.0439279854575063 12.168322664108763 24.967118558120276 237.1435462951663 0.7629657772645563
2.050600542467697 12.107656037394559 23.209608621741488 250.59994291042904 0.7857768522642212
2.056182621284696 12.044928104585031 21.613986693454383 264.99138905852243 0.8098612682397427
2.0606518406797556 11.98014118823355 20.160271506679432 280.39963644891833 0.8353190822745451
2.0639800338865295 11.913299506886277 18.83951960209442 296.91362243623763 0.8622550486202489
2.066151936681649 11.844427150249077 17.63483951743327 314.6336929908734 0.8907899655709235
2.0671626202229256 11.773576608952487 16.5382188716299 333.66951067617623 0.9210510219188021
