M[M_sun], R[km], Lambda[1], P_c[MeV/fm^3], rho_c[fm^-3]
0.24162668629717493 15.618656898711224 2160425.4255784233 3.5677272577965504 0.1711233750220791
0.2536398234595056 15.27741190686952 1723222.9626757395 3.784760095684924 0.17388743128571885
0.26603270762920234 14.981410585975386 1383152.596047493 4.011276384977164 0.1766651493684275
0.27880445630226136 14.72372155392526 1116562.5486038802 4.247534067495727 0.1794552624046232
0.29195515124184496 14.498629114732413 906113.6198403167 4.494157410852751 0.18226431996391249
0.3054860570381987 14.301468528194388 738890.8683482041 4.751297438817215 0.18508793861519934
0.31939776322749724 14.128424361961779 605246.1918684917 5.019643891954551 0.18793290108993738
0.3336917099156926 13.97626722576915 497889.884208153 5.299410561766873 0.19079562988397897
0.3483677221344874 13.842304382770733 411157.81826933916 5.591337817242547 0.19368265995627043
0.3634257211445155 13.724259405589697 340813.88884326804 5.895578051050777 0.19658877968435234
0.37887249777643195 13.620300083936218 283444.5640150105 6.213001367462242 0.19952179704456216
0.3946993842251308 13.52873332874899 236528.2927266039 6.543876201942828 0.2024780870408602
0.4109196562777092 13.448141394388292 197986.9285244628 6.888882792875552 0.205460987189465
0.4275205490906009 13.377312447982744 166193.48444065882 7.24873569846104 0.20847374745790098
0.4445109822160732 13.315144596373894 139888.80907779202 7.623709672773549 0.21151216825175534
0.46188542083374995 13.26078092963662 118064.34511396836 8.01472199671663 0.2145819230456596
0.4796439495204454 13.21335384591853 99882.3075736557 8.422491595685976 0.217684891811123
0.49779338744888024 13.17217180618575 84708.66555370188 8.84748071417987 0.2208188539700649
0.5163258879975754 13.136565299335734 71997.20530986389 9.290519665470812 0.22398661275336265
0.5352369932489817 13.105983959709619 61326.99622164773 9.752512452828856 0.22719137737028655
0.5545364511262397 13.0799518394924 52347.88662887173 10.234267731758907 0.23043449726103446
0.5742086175519833 13.057949441427137 44367.990716991844 10.736286773560085 0.23371305624516592
0.5942616398616831 13.039653188866568 38363.26907977687 11.259753691371317 0.23703248560209006
0.6146886416046767 13.024588520557176 32933.72398991645 11.80563346518268 0.24039476509664665
0.635481433666057 13.012506297169745 28325.206382756813 12.374903900026982 0.2438015255252443
0.6566465853402608 13.00308349428767 24396.659549713833 12.968295117862763 0.2472511866350944
0.6781691186676686 12.996026390029 21050.167048299085 13.587050976013076 0.2507476118438703
0.7000489878728686 12.991094682008356 18192.24644306659 14.232406908467755 0.254293883559557
0.7222742168324733 12.988022876697777 15746.8762757907 14.905551036583068 0.25789198340897973
0.7448529114587916 12.986653791740713 13649.805899005674 15.607566260973211 0.2615423491241634
0.7677636355120325 12.986749220218611 11849.474569255524 16.3396110942751 0.2652458080812928
0.7910006028342935 12.9881249188771 10301.391956690462 17.103350710960772 0.26900756732368514
0.8145656009223757 12.990638595809068 8967.847586870846 17.900238091805456 0.2728300553625759
0.8384371745818854 12.994098647210606 7816.900303728592 18.731704464187953 0.2767149529047752
0.8626098179948887 12.998359439008903 6823.245714335959 19.598960403750954 0.28066155390611985
0.8870752026216454 13.003298409620548 5963.328469444402 20.504152744412426 0.2846767925585645
0.911825468166399 13.008788943989193 5217.9592961908675 21.449072859724374 0.2887636767391108
0.9368358069042013 13.014679244196062 4571.53366288434 22.435288599223814 0.29292281189159536
0.9621032442240794 13.020880823361603 4010.017482013212 23.46465458076827 0.297156639596373
0.9876200451719264 13.027272540420062 3521.5060749882787 24.539670864482684 0.30147191599565637
1.0133579210721317 13.033734073272509 3096.5902870782525 25.662378378612722 0.3058710174210532
1.0393088373863846 13.04016709411393 2725.4663304504115 26.8345363855329 0.3103537212411518
1.0654523662310529 13.046510857974493 2401.74478500443 28.05933333037826 0.3149294775974918
1.0917731759778657 13.052625013364107 2118.882118902706 29.338939196077714 0.3195995369689515
1.1182614976420613 13.05846866517065 1871.472090731318 30.675873103633556 0.3243669780979821
1.144883177998046 13.063928292865166 1654.573370810794 32.0737476981564 0.3292413166137346
1.17163614451466 13.068945832141974 1464.4464456634385 33.53432060780951 0.3342190683702076
1.198483078999201 13.073411169023906 1297.4685600930002 35.06217276168284 0.33931409842057353
1.2254215744696075 13.077288100204235 1150.8739954592472 36.65950348573229 0.34452426720207735
1.2524087260200727 13.08045197355539 1021.8913672767591 38.33106440520876 0.34986221030348935
1.2794433193270613 13.082907201264508 908.1965493123686 40.079379375217286 0.355326226520457
1.3064784274383872 13.084509155731302 808.1076061104217 41.90978527850761 0.3609300947059092
1.333507611431379 13.08522549365284 719.8115070695146 43.825556061856325 0.36667462320773286
1.360505367087132 13.08505004266132 641.7458364902719 45.8317467317922 0.372569628086945
1.3874344098658304 13.083803273646733 572.7741091502688 47.9334964822283 0.37862401821913233
1.4142833918555637 13.081527609093943 511.70506820637775 50.13533042365048 0.38484229736976266
1.4410097855762383 13.078114461074705 457.6367450996667 52.44289008891496 0.3912336571547162
1.4675914216419617 13.073519044637083 409.7315405448669 54.86236635529904 0.39780865576381746
1.4939964806503858 13.067673385887872 367.1990734267894 57.39993522067036 0.4045763309604965
1.5202047454426912 13.06055349790304 329.4204348439766 60.06220955043206 0.41154642868589564
1.5461845014328628 13.052092331260248 295.8201232858182 62.85627839289148 0.41872946133640043
1.571898596899969 13.042240040325883 265.9679868742302 65.78975005689824 0.42613677079429696
1.5973143749406236 13.030930374338556 239.34325860808795 68.87079933341327 0.43378059676789804
1.6224070829553698 13.018152626266335 215.61877569113338 72.10821929009731 0.4416741510655763
1.6471588263484314 13.003842195970888 194.45299019849497 75.51147812179477 0.44983169850360777
1.6715122001363378 12.98794726594048 175.55999287648814 79.09078160073041 0.4582686452316224
1.6954475181230948 12.97043409452915 158.6643656600141 82.85575212990277 0.466995931277311
1.7189134804584925 12.951224198335664 143.55530278063065 86.81931537756759 0.4760359956883787
1.741926743883168 12.93038058370732 130.02928130782743 90.99341771699079 0.48540472648325605
1.7644060679527205 12.907762535081378 117.90351631994022 95.39138705775837 0.4951210878959232
1.786334010243584 12.883359785548626 107.0232214570056 100.02760859376393 0.5052055123996004
1.807676482783618 12.857139959009666 97.26670992652222 104.91819456884387 0.5156821669621464
1.8284033701840248 12.82908726059392 88.49418031466072 110.0793214154561 0.5265723344178574
1.8484824830401645 12.79913830010002 80.61480343123573 115.52909400632234 0.5379012884883732
1.8678782772741265 12.767283587807823 73.52053390210538 121.2875647545603 0.5496978820405487
1.8865584733994467 12.73348890600211 67.13128403649199 127.37599321642716 0.5619914448670437
1.9044922448476052 12.69772067019454 61.372931281206995 133.81723493663912 0.5748128791193335
1.9216464840107037 12.659964663878064 56.1800649461165 140.63594504982163 0.5881949891066015
1.9379809962942167 12.620157732205271 51.48943469667257 147.86019383438153 0.6021776211028739
1.9534801308572018 12.57832012448921 47.25432750481823 155.51893929625527 0.6167982891408229
1.9681179467118886 12.534478162660928 43.420028424980906 163.6448241177452 0.6321013421785636
1.9818533937980387 12.48854412388569 39.954225908867585 172.27211020731028 0.6481302335525757
1.9946585203915395 12.440524551097004 36.813131320441954 181.43992756718848 0.6649378228374052
2.006511416209715 12.39041862411745 33.96856890452962 191.18997810248953 0.6825777866253908
2.017385065220704 12.338226589300506 31.38728341376192 201.5681464615684 0.701109162789059
2.0272422746983905 12.283908581984761 29.045263631831524 212.62485635183555 0.7205965097667025
2.0360764553043604 12.227512076695382 26.919042668822428 224.41414621426387 0.7411057726987743
2.0438455416669252 12.168991000131015 24.986509067558803 236.99826922189789 0.7627180665092543
2.0505321786816713 12.108358246188358 23.229525144928772 250.4426163079946 0.7855116351744491
2.056125740235825 12.045655393567706 21.631425153982367 264.8211567435277 0.8095779917773025
2.0602852407355545 11.981914846628097 20.214660209755333 280.4007024297682 1.0135695502720576
2.061393212132397 11.918905227076559 19.094452533902373 297.9783577557857 1.3295239668685572
