M[M_sun], R[km], Lambda[1], P_c[MeV/fm^3], rho_c[fm^-3]
0.24162668629717493 15.618656898711224 2160425.4255784233 3.5677272577965504 0.1711233750220791
0.2536373432896396 15.277453459647171 1723365.524643395 3.784708741226986 0.17388679117717487
0.2660259694422783 14.981591617926378 1383251.4619915416 4.011168430985275 0.1766638448081456
0.27879537602837784 14.7238980473889 1116833.4247578336 4.247365865143809 0.1794533115108165
0.2919432077554149 14.498812747659626 906276.0798808847 4.493924549926585 0.18226172700345541
0.3054711068366758 14.301660652309932 739004.8966472695 4.750992016720881 0.18508463947365209
0.31937798610349255 14.12865406657204 605413.4805378232 5.019263662606293 0.18792895606369414
0.33366796736380466 13.976481519989306 498038.0206549881 5.298945519632932 0.19079094768133462
0.3483404515660589 13.84252983955513 411301.2931843979 5.59078680506787 0.19367732876190222
0.3633934944241733 13.724496936090643 340929.96759318793 5.89492869538475 0.1965826807985187
0.37883816091511074 13.620482229571138 283563.1064016284 6.212245815804659 0.1995149073231884
0.3946598870268534 13.528919738638487 236657.09258027084 6.543015242570084 0.20247053759026037
0.4108746745235687 13.448320935290393 198073.77179513802 6.887899812715686 0.205452615717932
0.42747189109949657 13.37748318068856 166269.43392721363 7.247621480156707 0.20846452981541894
0.44445442969452775 13.315347301725168 139978.15210745655 7.622467299424872 0.21150227816105643
0.4618240598587527 13.26096650781452 118128.63750402951 8.013329808578312 0.21457115334487392
0.47957642043621657 13.213525818717395 99949.19000967967 8.420938744890146 0.21767321654398397
0.4977216176601744 13.172319480891959 84760.17086198705 8.845772929212984 0.2208064888772243
0.5162470775035283 13.13670184455022 72050.08612979371 9.28862932254068 0.22397330462128537
0.5351513008709263 13.106119994018673 61369.93860806534 9.750426744795147 0.22717709750905818
0.5544460388249025 13.080048809474212 52387.114734757706 10.23197307370461 0.23041921573354188
0.5741119809236096 13.05804472115263 44804.62166595237 10.733793137206455 0.23369704632734373
0.5941597508312874 13.039714822162027 38394.09713942592 11.257023595499842 0.23701542791368044
0.6145785586193339 13.024658962420665 32960.658148661256 11.802650794421401 0.2403766254819418
0.6353647027099776 13.012562005685487 28345.360300959575 12.371651534148699 0.24378226802554379
0.6565176782275267 13.003118656265329 24418.038291293757 12.964787991403966 0.24723114133842083
0.6780392086625812 12.99605681905238 21070.187700248593 13.58323931472453 0.2507263895350208
0.6999110770254245 12.991121242583668 18208.857576993945 14.228270291338442 0.2542714422097428
0.7221281602260017 12.988033453640409 15762.540528542771 14.901067731201294 0.2578682784834315
0.7446992137413146 12.986661362826748 13662.662765921654 15.602756859689329 0.26151776665500215
0.7676037479231156 12.98674473212807 11861.103222775499 16.334410506823318 0.265219884457198
0.7908315541110752 12.988108477919189 10311.718303672142 17.097732858233147 0.26898024960823524
0.814388830290219 12.990619082051081 8977.02882282857 17.89417516657847 0.27280128721589375
0.8382547400187398 12.994057455107415 7824.960795237268 18.725223349464535 0.27668517553603994
0.8624177750901189 12.998323394550894 6830.5455865356935 19.591976883850553 0.2806302232566023
0.8868751455447215 13.003254992824933 5969.886705616137 20.49663323636133 0.2846438409083664
0.9116176898262719 13.0087428743938 5223.960947876724 21.44098148206801 0.2887290318031439
0.9366202138502663 13.014630536822112 4576.855554960495 22.426659043686836 0.29288696963081856
0.9618807918372915 13.020818298210743 4014.5833775470765 23.455378628202844 0.29711896719685077
0.9873889407447175 13.027211264780707 3525.6309862457583 24.52970489213776 0.3014323259185992
1.013114613554099 13.033669660711237 3099.8461114803285 25.651760944740754 0.305830042698939
1.0390584272423251 13.040115233571244 2728.734614852976 26.82313778581112 0.3103106593839436
1.06519630004445 13.0464445434138 2404.6401143141875 28.047100256435165 0.314884222137628
1.091507032095977 13.052570281041303 2121.3993069953895 29.325914980257476 0.3195526577889079
1.1179888495561139 13.058408591158825 1873.7683831748702 30.66190237161119 0.3243176954354923
1.1446043781473936 13.063869285747105 1656.7895897450942 32.058764963323604 0.32918950048825546
1.1713503450669818 13.068897692191019 1466.2780604831873 33.518373683118824 0.3341653255898033
1.1981946603197882 13.073370790649793 1299.1604545358787 35.045075395445814 0.33925756206553415
1.2251201518815171 13.077243245689875 1152.399117697739 36.64130526072032 0.34446556254521343
1.2521016388744908 13.080429010341458 1023.2175599196298 38.31155612081729 0.34980041233517833
1.2791285602372235 13.082880227313424 909.5047151149844 40.05861185033539 0.35526197873645415
1.3061581189372407 13.084493913194175 809.270669209169 41.88767274285889 0.36086324516060864
1.3331827571623627 13.085221500181616 720.8159277897893 43.801850821922805 0.3666041589752031
1.3601783999434973 13.085051693270904 642.6653693174967 45.80649842020249 0.37249620942656597
1.3870976610079564 13.083828406863853 573.5537863447756 47.90659735333404 0.37854745461507155
1.4139343982130514 13.0815457878545 512.4919986473556 50.106485801846986 0.38476147156072626
1.4406627419365932 13.078162557696837 458.31320564788416 52.41214572656651 0.3911492446546245
1.4672371679878082 13.07357689575598 410.34466210536823 54.829586248270964 0.39772041761107163
1.4936428143219136 13.067759876811467 367.7260906530702 57.36497235463129 0.40448400973130794
1.5198465961587104 13.060663144020571 329.9201285490978 60.024904915711865 0.41144974697927644
1.5458251849094207 13.052218449027333 296.2676033216732 62.81645990110248 0.41862812010908695
1.5715361922051383 13.042392168119541 266.34805617108174 65.74723134838854 0.426030447529522
1.596951316992011 13.031107240250277 239.70209425325862 68.82537846328847 0.4336689434600274
1.622045003878238 13.018340267144362 215.9533305449647 72.05967727904356 0.44155679200049053
1.6467935888327065 13.004065665368415 194.7501875317649 75.4595773562262 0.44970822781228087
1.6711490551767774 12.988197568105043 175.82986775342795 79.03526406485128 0.4581386241916095
1.6950786398796687 12.970710976663211 158.90271419401245 82.79662076495741 0.4668600475728851
1.718568055654669 12.951570064950193 143.76848830857463 86.75599544611028 0.4758926071976268
1.7415674491644406 12.930724481497219 130.2332426546102 90.92588284976614 0.4852544862623722
1.7640498856192526 12.908137676513965 118.08912104450819 95.31898742379427 0.4949622269329533
1.785981771363204 12.883772257493558 107.19689262914667 99.95028117590812 0.5050386431866226
1.8073178883042957 12.857566285783506 97.41980527122735 104.83553881899122 0.515506647304081
1.8280638495709123 12.829567671153086 88.6376777669806 109.99055120192695 0.5263861692160842
1.8481484684895297 12.799663304683722 80.74463191840915 115.43407020586982 0.5377050021068308
1.8675511126800064 12.767845357190915 73.64186863582293 121.18576536748515 0.5494906557937772
1.8862394202834263 12.734093170647157 67.24237499854833 127.26684737260042 0.5617723900293733
1.9041705684063241 12.698334488990069 61.472112430801765 133.70043501165435 0.5745821496970859
1.9213364058555495 12.660623766948076 56.26913771980743 140.51058823103043 0.5879507463528073
1.9376855200127494 12.620869029933571 51.571111975840665 147.72544675891166 0.6019184283991226
1.953202740675326 12.579106224791468 47.32631355478682 155.37442164689173 0.6165244137288584
1.96786090508847 12.535327731903669 43.490378199860785 163.48920766256757 0.6318099606322995
1.9816048598077134 12.489431297912855 40.015748148884335 172.10487530316772 0.6478214525871626
1.9944378327544439 12.441501993018733 36.86843696074145 181.26001509677155 0.6646101097779131
2.006291735522134 12.391404371858023 34.01902286084896 190.99622125830197 0.682229467622831
2.017176511700811 12.339256226219034 31.434546929843307 201.35925821557427 0.7007384067575458
2.0270543506654635 12.284992592586669 29.089548145986612 212.39952334047857 0.7202016643865564
2.0359105794950842 12.228657993920367 26.96003656454521 224.17112567950608 0.740685705918947
2.0436992222248165 12.170191722675217 25.02393530267623 236.73574713842203 0.7622701103759925
2.0504063198625437 12.109617040394317 23.264102045327558 250.15855876343042 0.7850327783623693
2.056020505487974 12.046973685998077 21.661946743583062 264.5138052910465 0.8090665411036307
2.0605176798379667 11.982260692189337 20.207527258968685 279.8822256089338 0.8344688954024669
2.0638828394866633 11.91551348501979 18.880276888797955 296.3533063813511 0.8613472362132774
2.0660981452057294 11.846743900986333 17.673142454295242 314.02504799584136 0.8898156446451343
2.067116145870898 11.776331599088527 16.580183943120208 333.0646728340029 1.0185126938606
