M[M_sun], R[km], Lambda[1], P_c[MeV/fm^3], rho_c[fm^-3]
0.24162668629717493 15.618656898711224 2160425.4255784233 3.5677272577965504 0.1711233750220791
0.2536463395795206 15.277253398895326 1723067.7182179287 3.7848732047969382 0.17388884113623446
0.2660456197914729 14.9811595469124 1382964.1278906537 4.011514162904857 0.17666802277435673
0.27882384451464587 14.723380247948047 1116259.4359595387 4.247904558636431 0.17945955954353712
0.2919823312682849 14.498212549799659 905719.9237340912 4.494670337175115 0.18227003151755597
0.30552136067141505 14.300988212226741 725261.5622106453 4.751970216535324 0.18509520589857048
0.31944146329096806 14.127895060227589 604946.9265256976 5.020481476902917 0.18794159135705477
0.33374418710029763 13.975711913877122 497524.0161172741 5.300435005217725 0.19080594432966996
0.34842874536881224 13.84179341277469 410861.54082266625 5.5925516769574415 0.19369440438293334
0.36349476371968115 13.723760201678228 340505.0119021343 5.89700859798781 0.19660221568392097
0.37895228107165363 13.619799706298467 283188.20283478004 6.214665913164039 0.19953697569711903
0.3947906576447322 13.528236502412732 236305.20404507904 6.545773018165102 0.20249471955665635
0.411021061956833 13.447644374189943 195277.70570279163 6.89104849735817 0.20547943123764162
0.4276337474778925 13.376846705088086 165988.78275876437 7.251190613730563 0.20849405634278487
0.4446346270983459 13.314745718368838 139725.57066038362 7.626447013682882 0.21153395924549806
0.46201842062117604 13.260403133843829 117910.28893883672 8.017789508729726 0.21460565273105783
0.4797902702652558 13.213012202891273 99754.19230135978 8.425913198547557 0.21771061748132903
0.4979528185240849 13.171838502461553 84585.58113467939 8.851243791900181 0.22084610026059937
0.5164975161517158 13.136271699279252 71891.3736182514 9.294685115938687 0.22401593778434206
0.5354238911305034 13.105708170754072 61238.83129515105 9.757108518556983 0.22722284446910065
0.5547356534190442 13.079709998475245 52267.48060771243 10.239308551979933 0.2304679691083611
0.5744247842429467 13.057735873538217 44697.25658704109 10.741782015983432 0.23374833740373685
0.594487147787488 13.039438452795459 38295.829053656744 11.265770176409339 0.23707007670948374
0.6149315182779805 13.024454234273307 32873.98672088316 11.812206734914371 0.24043474154387373
0.6357419276203314 13.01237723116954 28268.051804252078 12.382071713892715 0.2438439666830164
0.6569196774651728 13.002978950693445 24350.043776205406 12.976024560156894 0.24729536495764068
0.6784588023090643 12.995936000311739 21012.107786530876 13.595451805504322 0.25079438541176063
0.7003544717913835 12.991037625937604 18155.709844971927 14.241524168459156 0.25434334513997836
0.722595436447915 12.987998036184395 15715.578346103022 14.915432664471208 0.2579442313005321
0.7451905868088559 12.986642218278496 13524.345700733633 15.618166860372321 0.26159653235663616
0.7681180758252637 12.986761581937166 11823.951953386868 16.351074217832647 0.2653029488771765
0.791371565371952 12.988149561327958 10279.1704288309 17.115733888966357 0.2690677825250304
0.8149542664199722 12.990679344825988 8947.173369080941 17.913602668704662 0.27289346932434955
0.8388422519105772 12.994171073500114 7799.324057145314 18.74599116316695 0.2767805928944471
0.8630313768480496 12.99844272980024 6807.0473413495465 19.614354984081313 0.2807306196792084
0.8875201678169237 13.003396172136855 5948.706816675858 20.52072929875943 0.2847494335899484
0.9122857876505593 13.008885793022547 5205.487447601236 21.466910554397867 0.2888400525821384
0.9373128219136283 13.014793379422493 4560.547527679124 22.454313129626716 0.293001828959964
0.9626033649971335 13.021006204168872 3999.790883624502 23.485104687303398 0.29723969355533086
0.988132242011841 13.027388687461194 3512.617637921093 24.561642802242616 0.301559200073808
1.0138825049394653 13.03384862645229 3088.174061232781 25.685787098214533 0.30596135617826153
1.0398536479672862 13.040311653869587 2718.316150255068 26.85966805794031 0.31044866417405814
1.0660129742890059 13.046636633393383 2395.452723316982 28.08630559374637 0.31502925972812945
1.0923521916054058 13.052758870254014 2113.1116648926177 29.367656457319686 0.31970290147693436
1.1188585126707258 13.058600082555689 1856.9414935530758 30.706678210313285 0.32447564510791593
1.1454978092895565 13.064056355134863 1649.923360114714 32.10656683535056 0.32935416099103026
1.1722669774108225 13.069054642497276 1460.225055124771 33.569484967652606 0.33433757588847607
1.1991298233177827 13.073503588809858 1293.789674966246 35.09986812757066 0.3394387271122428
1.2260829761158454 13.077367741735678 1147.4947700094688 36.69963426117154 0.34465372287153384
1.2530846806243485 13.080521332794715 1018.7750000779353 38.373940115303306 0.3499976392275716
1.280134350774354 13.082956180985864 905.4639130023004 40.125178441035864 0.3554679135296203
1.3037002505820139 13.082961209310982 817.0088700038317 42.07930052995805 0.919722933792135
