M[M_sun], R[km], Lambda[1], P_c[MeV/fm^3], rho_c[fm^-3]
0.24162668629717493 15.618656898711224 2160425.4255784233 3.5677272577965504 0.1711233750220791
0.253645027858935 15.277275168744946 1723214.9195248613 3.7848397205130313 0.17388842377078892
0.26604188809330503 14.98122806442675 1382890.8214262873 4.011443771206737 0.1766671721322273
0.2788180925461942 14.723490459890392 1116413.1244179506 4.24779487698198 0.17945828740163222
0.29197371495061525 14.498341331223754 905801.6627524728 4.494518486315893 0.1822683406229958
0.3055111023756097 14.30113744536879 738586.1606968701 4.751771039137862 0.18509305440254212
0.31942823357526345 14.128071310673922 605025.5696215286 5.020233504604071 0.18793901854874573
0.33372652924412194 13.97589472131841 497652.5144956161 5.300131708070293 0.1908028906306563
0.3484107506217183 13.841945193405158 410955.9155063839 5.592192296499751 0.19369092727814302
0.36347524149672855 13.723896291108984 340624.7525532038 5.896585058444098 0.1965982377108959
0.37893018278456303 13.619917931294452 283268.77479148173 6.214173087374744 0.19953248171932156
0.39476376962247656 13.528379715148358 236376.03361787394 6.545211416611612 0.20248979506971876
0.41099064926524165 13.447798823779815 197838.76957702692 6.890407276005901 0.2054739703275276
0.42759965094431435 13.377001131627228 166046.29820911135 7.250463753365297 0.2084880432132614
0.44459749175073215 13.314857973231566 139778.6088209739 7.625636522167423 0.21152750721189068
0.46197881733296875 13.260502414437077 117948.88415266978 8.016881246061939 0.21459862658502366
0.47974756806172364 13.21309317577002 99792.67801075512 8.424900079750705 0.2177030002442908
0.49790552760375884 13.171938960060332 84624.23042848089 8.85012955159292 0.22083803268469654
0.5164466131622704 13.136352202977994 71921.22727602195 9.29345171817049 0.22400725458716056
0.5353669957837643 13.105800964451774 61258.630310754525 9.755747597592825 0.22721352688380259
0.5546761235224846 13.079785167197114 52296.46407511295 10.237825796471036 0.23045818479536412
0.5743611593271083 13.05781824195563 44718.47094206232 10.74015480560889 0.2337378902090856
0.5944201611671879 13.039498486200936 38317.88250437211 11.263988597286541 0.2370589453708845
0.6148591270085716 13.024480022297693 32893.238559308535 11.810260258496207 0.2404229037196271
0.6356660621519215 13.01242071338726 28283.12441611077 12.379949154619581 0.24383139885205996
0.6568388102573557 13.00299753367579 24363.371728720285 12.97373566540887 0.24728228257386645
0.6783723484510887 12.995967212013575 21021.019383051163 13.592964064159561 0.2507805343344588
0.7002622278796431 12.991062272732314 18166.261533724803 14.238824236694102 0.25432869787838275
0.722501265610267 12.987997803243358 15609.453365773448 14.912506340889491 0.2579287587246696
0.7450910570176041 12.986643603523378 13629.53310543643 15.615027589834927 0.26158048648800947
0.7680137519163186 12.986763118865126 11832.668951187328 16.347679476420055 0.26528602694266523
0.7912621209615616 12.988145344816408 10217.985423364084 17.11206663269039 0.2690499498995975
0.8148388195764181 12.990669964848301 8953.241414544684 17.909644723311754 0.2728746891564669
0.8387235298956652 12.994145868579162 7804.944859067083 18.74176008622178 0.2767611532851021
0.8629067406681346 12.998417893579068 6811.600933682845 19.609795745171795 0.280710165249583
0.8873913682228511 13.003362503621574 5953.212912608512 20.51581994583159 0.28472792004421144
0.9121493590013992 13.008863051891733 5209.1364634716865 21.461627631812895 0.2888174326374952
0.9371711456831793 13.014760225649203 4563.505067731944 22.448678648214436 0.2929784265319646
0.9624589646351195 13.020964992494621 4002.8879488677308 23.479047916146634 0.2972150952080212
0.9879803228928843 13.027360319445204 3515.1466803129097 24.555135221304493 0.3015333485440346
1.0137251022909397 13.03381079921344 3090.600129493563 25.6788539029147 0.30593459964234143
1.039692095606953 13.040268408526932 2720.2999016275044 26.852224460591525 0.31042054360363963
1.0658461216314734 13.046597708869792 2397.1781929004987 28.078316736951543 0.3149997054730242
1.0921808868044227 13.052724417190502 2114.6865880988566 29.35915066192121 0.3196722858360848
1.1186821003566825 13.058553690136998 1858.4532494172547 30.697553890554488 0.32444345847872563
1.1453146878081792 13.06401432989263 1651.420508842052 32.09685377893506 0.32932078788588415
1.1720805646527068 13.069019842119973 1461.3841946163016 33.559069200814356 0.3343024736803207
1.1989384847926128 13.073477479434226 1294.8345386871945 35.08870737472912 0.3394018411923677
1.2258879390330841 13.077340808208952 1148.5462082902914 36.68774712885847 0.34461537682278043
1.2528847248364174 13.08050210877292 1019.6806738473557 38.361285249985514 0.3499577902698641
1.27992975794243 13.08294632521588 906.2586411851672 40.11161195189752 0.35542594334449745
1.306973923577279 13.084530008206427 806.3174618696871 41.944106074292584 0.36103385167114493
1.3340142868599165 13.085237311054671 715.3129258056803 43.86234978967492 0.3667839931951245
1.3610241642506347 13.085031200258541 640.3034657795915 45.87093630994255 0.37268358605670443
1.3879568579385664 13.08376486059278 571.5277496491499 47.97524926611313 0.37874286012016045
1.4148079367501607 13.081459936212624 510.57283894002745 50.18010414505663 0.3849677582713088
1.4415399458052114 13.078015656074433 456.6546059161746 52.490613684227114 0.39136468826695736
1.4681358820262704 13.073411270704675 408.8152781253494 54.91325109328124 0.397945628327045
1.494546792616468 13.067538459708354 366.34100097632773 57.45420948087112 0.40471964490991463
1.5207596454882808 13.060388868730808 328.69160839271404 60.12012035493476 0.4116965150076894
1.5467430470382841 13.05189505752099 295.13961785860374 62.91809309088159 0.41888678465727164
1.5724605773602411 13.042006281869176 265.32717543265454 65.85575817906489 0.42630183222951945
1.5978740269916973 13.03066667449025 238.78698710361834 68.94131463526836 0.4339539370558755
1.6229720310686648 13.017844202864602 215.1196035058641 72.18358200564556 0.44185635402023493
1.6477250216473558 13.003495202745404 193.98224350856268 75.59205745164164 0.4500233948197191
1.6720731932115853 12.987552701733144 175.14822726248292 79.17658807395401 0.45846888652802925
1.6960100284390696 12.96999091881576 158.27909639948277 82.9475619093283 0.4672069098830374
1.7194889491541685 12.95077420555554 143.19961579105725 86.91763120400856 0.47625863266296053
1.7424709125946551 12.929821825446277 129.7134095450417 91.09828051831111 0.48563800761758413
1.7649534385277053 12.907162939131121 117.61075304564993 95.50380673984668 0.49536776178052017
1.7868790696652102 12.882722346269945 106.7639372731302 100.1476830351504 0.5054646278348303
1.8082154869857867 12.856451812807748 97.0335438173084 105.0465462583216 0.515954722043788
1.8289288190965345 12.82831661802916 88.28433483917713 110.21694887584019 0.526860598214288
1.849001928999736 12.798323977126895 80.41716221751821 115.6766601416591 0.5382061092028203
1.8683757537210846 12.766376355961112 73.34478588776521 121.44565754600241 0.55001970102938
1.8870505301251266 12.732547023690465 66.9701245822692 127.545382391547 0.5623312234722344
1.9049710331296323 12.696717585686153 61.221652816273604 133.99850382806594 0.5751707601945013
1.9221118024059833 12.658885114317856 56.04403479232086 140.83063948785085 0.5885743279104353
1.9384214138163114 12.618983512381384 51.363239545066094 148.0694793982336 0.6025801922975494
1.9539147373662125 12.577125512574728 47.139595869258045 155.74340709138346 0.617223678082134
1.9685270161733663 12.53318534548707 43.318184930842726 163.886222505656 0.6325528658029425
1.9822385283950714 12.487169352532684 39.85853666912383 172.53188059459183 0.6486098711699845
1.99502219628936 12.43907655455077 36.72513209247098 181.71939989080215 0.6654468855499707
2.0068551339464387 12.388901497596143 33.88557973959001 191.4909666570825 0.6831188773597974
2.017696871422952 12.336613505208195 31.311454172339086 201.89265259001763 0.7016851291571664
2.0275303810889937 12.282216807437111 28.97637206977984 212.97427215801704 0.7212077918147334
2.0363333468801685 12.225731050633867 26.85526717103239 224.79170472731408 0.741758391576975
2.044071543763228 12.167122553173835 24.929571114973445 237.40580929514556 0.7634129597714104
2.050726194471071 12.106397731455303 23.175897043281285 250.88368586353977 0.7862547391865417
2.056292564785532 12.04363445201314 21.583601302835994 265.29866641476883 0.8103725126766206
2.0607328537473735 11.97877186995475 20.13273510452195 280.73208257267237 0.8358644896043297
2.0640317418330922 11.911856833375568 18.812202267292555 297.2742213902003 0.8628392835381911
2.066186239647894 11.842939013476284 17.610734344348725 315.02541288965347 0.891417032083496
2.067171390046946 11.772032874588483 16.515607821821344 334.09493485270696 0.9217229454229889
