M[M_sun], R[km], Lambda[1], P_c[MeV/fm^3], rho_c[fm^-3]
0.24162668629717493 15.618656898711224 2160425.4255784233 3.5677272577965504 0.1711233750220791
0.2536446793128279 15.277260591031816 1723187.5859249705 3.784832230528345 0.1738883304117431
0.2660405466837793 14.981263972490973 1382925.130540956 4.0114280256500265 0.17666698185646684
0.27881735777434447 14.723476238491518 1116460.3102743225 4.247770343039142 0.17945800284486718
0.2919722833876732 14.498381673498214 888701.191551281 4.494484520076201 0.18226796240103368
0.3055077848904886 14.301202036578097 738603.8043591162 4.751726487150072 0.18509257315604524
0.3194252301200592 14.128093457503185 605076.0364273753 5.020178038560295 0.18793844306713361
0.3337228659844123 13.975970050288732 497664.3808512201 5.300063867538489 0.19080220758906882
0.34840670310584126 13.841979533233976 410976.96922236384 5.592111911968922 0.19369014953569424
0.3634708990129491 13.723922958863925 340633.6340038641 5.896490323772245 0.19659734794280986
0.3789250357222322 13.619951579476758 283284.8685961185 6.214062855953686 0.19953147654148878
0.3947582520314348 13.528395928052587 233274.3400818182 6.545085802760399 0.20248869360593963
0.41098393754801393 13.44782515842018 197840.87767574328 6.89026385450784 0.2054727488898656
0.42759312458280324 13.37701730203852 166064.7739069535 7.250301178151821 0.20848669827018476
0.444589259905955 13.314883515568823 139785.57970918852 7.62545524246033 0.21152606410885974
0.46197177088122654 13.260530026533063 117965.32680151454 8.016678099584501 0.21459705508278382
0.479738148673076 13.213124692415722 99810.45008201881 8.424673482136555 0.21770129654701004
0.49789561346899003 13.171958421769242 84629.75824018347 8.849880338244443 0.22083622827357288
0.5164359602998111 13.136365555061753 71929.1251051457 9.293175855612187 0.22400531249755207
0.5353553099314955 13.105818034719807 61268.606869689145 9.755443215092741 0.22721144292008796
0.5546613880412672 13.079813819637982 52298.38906447325 10.237492166153185 0.23045597073624444
0.5743470212888822 13.05781904328773 44721.73331096031 10.739790869419995 0.23373555362601958
0.5944051073871375 13.039528586526503 38322.292556084096 11.263590138084778 0.23705645579058124
0.6148431912834404 13.024506788996275 32896.189354637565 11.809824921974483 0.24042025614723206
0.6356493140889313 13.012418587705499 28286.497806899162 12.379474439574492 0.24382858802905272
0.6568208763658404 13.003004930981401 24366.42639760033 12.973223751833444 0.24727935668578935
0.6783540433153579 12.995969729579498 21024.174474373747 13.592407681900742 0.25077743654710544
0.7002432144015944 12.991053982179793 18168.603207030348 14.238220402002375 0.25432542204570996
0.722478987639765 12.98800600074107 15725.746261992488 14.911851878282041 0.25792529833416245
0.7450683179987218 12.98663920310162 13631.503323958397 15.614325506063835 0.2615768979014822
0.7679919898792784 12.98674837772153 11834.17010085931 16.34692026259647 0.2652822424521721
0.7912368051168602 12.988143265856257 10286.621500666777 17.111246477799476 0.26904596176409074
0.8148110461770306 12.990668057020285 8954.018230509162 17.908759563645003 0.27287048913714007
0.8386956973115346 12.99414354492234 7805.874306293234 18.74081384807232 0.2767568058104021
0.8628778086225356 12.998415921660616 6812.696560232136 19.608776123480474 0.2807055908500958
0.8873621122054899 13.003356241108445 5954.0266975106415 20.514722032293214 0.2847231088168521
0.9121188207023435 13.008854499120224 5210.002352818145 21.460446181975755 0.28881237401142507
0.9371398236421979 13.014748931687935 4564.266443713701 22.447418583987798 0.29297319294253893
0.9624251497079436 13.020955434232995 4003.6452753006565 23.47769342234766 0.29720959420624427
0.987947054238952 13.02734402755886 3515.7171256055026 24.55367992127885 0.30152756732789604
1.0136910701373116 13.03380003829548 3091.3846383525133 25.677303430489268 0.30592861607064753
1.0396564561037367 13.040262366775252 2720.8106944999654 26.85055985807566 0.3104142550350789
1.0658088010659978 13.046584753643234 2397.5544090487015 28.07653021094027 0.31499309633646744
1.0921436726635778 13.052715280925895 2115.208413957782 29.35724854488258 0.3196654393826516
1.118641566609999 13.058546529438313 1867.9256816630082 30.69551346957565 0.3244362607615068
1.145273737386848 13.064002543646021 1651.6780922568735 32.09468171431828 0.3293133248858006
1.1720376930722267 13.069013962244169 1461.6453365220002 33.55674001039077 0.3342946240684436
1.1988955294744328 13.073471651876487 1295.0496190925082 35.08621006313398 0.3393935832599453
1.2258426079778801 13.07733999197417 1148.753405642278 36.6850889440384 0.344606801930029
1.2528405967028227 13.080495685465507 1019.8878288776101 38.35845540256901 0.3499488793516372
1.2798825917790435 13.082943907071124 906.4040428060969 40.10857827219064 0.3554165581529713
1.3069278588932924 13.084520636566364 803.1911070517633 41.94087581977723 0.36102408612236364
1.3339661424786868 13.085238449141718 718.3897200215501 43.85888673745665 0.3667736992129731
1.3609758379906227 13.085031162020279 640.4378679311 45.86724771734622 0.3726728601304917
1.3879078593349616 13.083769807869329 571.6389832315882 47.97131937532497 0.378731674382381
1.4147590047425902 13.081462752890278 510.6876078727118 50.17588985559958 0.38495594936782584
1.4414895376645531 13.078023542792145 456.7520331786747 52.48612168723777 0.3913523549262305
1.4680849544665675 13.073420114706012 408.8990785826587 54.908461495071975 0.3979327355900561
1.4944939508069852 13.06755522510906 366.4252982224554 57.44910077616115 0.4047061551148315
1.520708017570372 13.060401362121802 328.74753066680574 60.11466928254153 0.411682387567873
1.5466911139718142 13.051912755782649 295.19935672062815 62.912274475012325 0.4188719758172839
1.5724073598721655 13.04202942706998 265.38901634923224 65.84954475460111 0.42628629479676156
1.597821535999876 13.03069143216181 238.84270293461407 68.93467685524845 0.4339376201052291
1.6229191103076104 13.017869417360275 215.1672687244663 72.17648782892142 0.4418392025687432
1.6476708683332986 13.003528723655888 194.03573860554607 75.58447210844146 0.45000534946800574
1.6720200194754962 12.987593380454053 175.17976370202737 79.1685134237193 0.4584500484614117
1.6959576662235238 12.970033283421431 158.3188701767648 82.93891915481933 0.4671870488583476
1.7194373872684507 12.95081806400722 143.23581953620135 86.9083758453457 0.47623767382931226
1.7424134974749645 12.929841960268778 129.7472328241159 91.08840870336822 0.48561604646302065
1.764902480060123 12.907218726837831 117.6437653628011 95.49322334913592 0.49534453945814444
1.7868281139777356 12.882779664128417 106.79387906964553 100.13637885276984 0.5054402338996711
1.8081647937521914 12.856516852899286 97.0553424747206 105.03446265450341 0.5159290624857519
1.8288740934477643 12.828375231440399 88.3016691599933 110.20402189900679 0.5268335713444054
1.8489527186859638 12.79840213136725 80.44096546808561 115.66276714941169 0.5381774110749403
1.8683273207707385 12.766458914104776 73.36410300879626 121.4307732569649 0.5499894020713831
1.8870059440419338 12.732633606119025 66.98924382473388 127.5294798239583 0.5622993957422716
1.9049277701081715 12.696811019901206 61.23772534406018 133.98143699445217 0.5751370649657429
1.922066903964678 12.658987202926028 56.05499390523768 140.81230828885194 0.5885386117637827
1.9383801726004428 12.619092278104363 51.37685433074662 148.04977403259772 0.6025422880463457
1.9538740426716041 12.577243681314407 47.149613959310045 155.7222718822246 0.6171836247451136
1.9684889639146905 12.533302871391303 43.327277574725485 163.86352934580034 0.6325104747917387
1.9822022314683545 12.487297510701762 39.86729499104053 172.5074204831028 0.6485647082485333
1.9949886883410068 12.439214001424492 36.73297728591109 181.69308414038656 0.6653989510457001
2.006822889870793 12.389046883935178 33.892608719725246 191.4626243362673 0.6830679260297529
2.013469041838633 12.34356214794852 31.93876650223576 203.26150301635866 1.6249931165912872
