M[M_sun], R[km], Lambda[1], P_c[MeV/fm^3], rho_c[fm^-3]
0.24162668629717493 15.618656898711224 2160425.4255784233 3.5677272577965504 0.1711233750220791
0.2536412832746011 15.27738725546744 1723184.660865988 3.7847874427356056 0.17388777215351295
0.2660353574016515 14.98138569412966 1383131.6472583362 4.011333873011459 0.17666584407739483
0.2788084325577647 14.723666667944224 1116569.1616931944 4.247623640472054 0.179456301316165
0.29196328043884673 14.498458342126787 905981.5190201508 4.494281418250005 0.18226570081506152
0.30549441585688253 14.301354934881001 738765.8797420042 4.751460090117997 0.18508969555967247
0.31940874294035965 14.128266278670505 605211.8443400036 5.019846384250379 0.18793500202566144
0.3337046048505612 13.976113727908716 497797.9926070472 5.299658224769271 0.19079812343946587
0.3483830421637838 13.842172598426925 411099.426696393 5.591631268235854 0.19368549917535627
0.36344307095509315 13.724123081499165 340736.34470409865 5.895923881197312 0.19659202779427407
0.37889401992585686 13.620131558180194 279459.9258011402 6.213403760223032 0.19952546638202814
0.39472234820977925 13.528606456475465 236482.49607919317 6.544334738467673 0.2024821077867306
0.41094403652026845 13.448031726294882 197932.62154191974 6.889406323025356 0.20546544579191164
0.4275487680706099 13.377207102415074 166146.86750260368 7.24932913306677 0.20847865679030994
0.44454133005460744 13.315035909152472 139854.11270829235 7.624371370664796 0.21151743579244
0.4619183087289019 13.26068199803204 118025.19065505927 8.015463496613366 0.21458765914683775
0.47968086772923646 13.213245691847945 99850.41367108819 8.423318677384064 0.21769111030925362
0.49783235759156214 13.172124152487775 84680.86424595176 8.8483903272982 0.22082543995768938
0.5163667419913074 13.136501931565489 71970.5087678186 9.291526526586232 0.22399370111838568
0.5352812956431224 13.10592877196364 61304.32705072295 9.753623385940234 0.2271989834064182
0.5545835758846827 13.079904443737018 52324.0592995581 10.235489975396197 0.23044263692686004
0.5742613840401077 13.057925854280013 44753.05653097149 10.737615016677703 0.23372158397741924
0.5943147872811304 13.039583888194084 38346.69012267841 11.261207903337358 0.23704157154476974
0.6147472709327287 13.024562258054663 32919.327859660574 11.80722223319883 0.24040442745698576
0.6355440271736905 13.012477346531377 28309.181820468435 12.376636346875822 0.243811783471589
0.6567113783816215 13.00305563386428 24190.309447472864 12.970163288111145 0.2472618643301549
0.678239265873267 12.996000256722802 21039.828552153307 13.589081390271383 0.25075891664648003
0.7001221264555354 12.991071401704861 18045.899371716765 14.234610448836191 0.2543058378735996
0.7223519630988564 12.988001038282892 15738.362210255082 14.907939284163403 0.2579046109741937
0.7449350229737514 12.98664367848181 13643.147603486175 15.610128245232433 0.2615554442882652
0.7678497964540646 12.986761388332162 11843.372666256122 16.342381498788406 0.26525961785295016
0.7910899984996822 12.988121419409275 10295.443654912095 17.106343433735333 0.26902211992111685
0.8146592068134749 12.990655522981228 8962.526032740983 17.903467952016065 0.27284538081832915
0.8385356383868813 12.994105425195448 7812.432031385616 18.735157138522105 0.27673081615687894
0.862711362587334 12.998383118621664 6819.240745258946 19.602680769911185 0.28067824484276865
0.8871804465624482 13.003325576508256 5959.756548598862 20.508158700375283 0.284694347278727
0.9119369934053231 13.008809090415323 5215.075976742433 21.45338352873801 0.28878213377551354
0.9369513149684824 13.014711404844798 4568.637884194918 22.4398860285882 0.2929419069957957
0.9622238060660253 13.020906014209446 4007.4268282693542 23.469596443479084 0.29717670996921214
0.9877443504780885 13.02729279810999 3519.300096821294 24.54498041059303 0.30149300830179293
1.0134809298201728 13.033759076711586 3094.390119660743 25.668035060894375 0.30589284764739366
1.0394398257214197 13.040207839141909 2723.7021894216787 26.84060933078308 0.3103766637347545
1.0655895065372925 13.04653947012651 2400.1644165106118 28.065850952210145 0.3149535891147271
1.0919115150836582 13.052667565087575 2117.4402153995165 29.345878401668333 0.3196245138483838
1.1184052339963833 13.058498644753803 1870.182495146354 30.68331670540594 0.3243932358855675
1.1450311557806914 13.063962980280037 1653.363935005175 32.081698134334765 0.32926871458380846
1.1717888233212224 13.068971119957364 1463.4245933127636 33.5428173323605 0.3342477032079934
1.1986390559680036 13.0734325410704 1296.5464040659072 35.07128258181666 0.33934422212607823
1.2255811891266926 13.077304768910707 1150.0143224407223 36.66919997471758 0.34455554657455967
1.25257249722646 13.080470514450909 1021.1113225529459 38.341459074916166 0.34989513833838426
1.2796104157908597 13.08292016363183 907.5686148203358 40.090445138890516 0.35536046029642915
1.3066485477933139 13.084519223132155 807.4759541845092 41.921567856262996 0.36096571522351645
1.3336826219325755 13.085232750278095 719.2191751260506 43.838187491606284 0.36671217034944414
1.360686670936756 13.085041022317657 641.2169449990344 45.84520055727766 0.37260874998389265
1.387613124838881 13.08378868252356 572.3338246115699 47.9478301408079 0.3786648164384555
1.4144659068300698 13.08151079941556 511.30502882785936 50.15070100768716 0.3848853674401068
1.4411945116228986 13.07808606344977 457.3090927844794 52.4592732088129 0.39127863906373134
1.467778896433967 13.073480632019912 409.40748142874236 54.879834516861955 0.39785567691316454
1.4941849236749354 13.067625577079092 366.887635999074 57.41856680095582 0.4046255285975483
1.5203953141723965 13.060497475007756 329.1653874828422 60.08208932324044 0.4115979507119584
1.5463775132167195 13.052024079988906 295.58198480940405 62.87749810667063 0.4187834671950104
1.5720915087938605 13.042160745407351 265.73070656588436 65.81240907089898 0.4261934324481802
1.597514571013188 13.030849495908717 239.159682181268 68.89500531864122 0.43384009977419324
1.6226015097605968 13.01804815563679 215.45400320472163 72.13408900240978 0.44173669576006097
1.6473532519856229 13.003723647927748 194.29883913879615 75.5391382554026 0.44989750130596223
1.671701642542434 12.987812736719922 175.41062936452906 79.12025564471821 0.45833746361510697
1.6956403709728816 12.970285728028204 158.52767400937083 82.88726668057197 0.46706835162296356
1.71910700445384 12.951056149451208 143.43159434133378 86.8530628175988 0.47611241703599294
1.7421095831117106 12.930178407685741 129.92004496060287 91.02941209717426 0.4854848007301092
1.764595185952135 12.907559833293302 117.79899737187257 95.42997490710539 0.49520575825363866
1.7865210371831648 12.883138408718382 106.93396147392848 100.06882350509711 0.5052944523901991
1.807862046911701 12.856906862966078 97.18540299028639 104.96225013745034 0.5157757190544263
1.8285872179526632 12.828823318931818 88.42566174259252 110.12663688666831 0.5266715624572529
1.8486610467711024 12.798860183375346 80.54822474576235 115.57974356039745 0.5380059129892749
1.8680523990496918 12.766982776171997 73.45714006118675 121.34182677487765 0.5498083396291028
1.8867283906508616 12.733164006177464 67.07849090599731 127.4341721576562 0.5621082095378724
1.9046578252300455 12.697375576985955 61.322848388889874 133.87945024710103 0.5749357114598678
1.921806414894746 12.659593202326814 56.132592263720404 140.70276743753948 0.5883251845291456
1.9381349836890014 12.619764542563063 51.44636609592821 147.9320231931926 0.6023157884482804
1.9536302141385753 12.577922187396569 47.21542533105678 155.59597844495713 0.6169442860393405
1.968259552703745 12.534034367031463 43.38368280036969 163.7277815483467 0.6322566744946427
1.9819865968748591 12.4880720055014 39.92015039896667 172.36126306500688 0.6482948445565406
1.994786205744012 12.44002976464465 36.782225507020776 181.53584079626674 0.6651125301140834
2.0066270974238596 12.389892935338683 33.94258732781803 191.29327411125792 0.682763483099203
2.0174916511058836 12.337673269910315 31.3599303659951 201.6795118110152 0.7013068252990412
2.02734163572089 12.283328658008495 29.021331085671513 212.7447686316149 0.7208062891260527
2.0361653136118565 12.226899347416282 26.897607317618693 224.54371443926718 0.7413297344602745
2.043924217954412 12.16834845527334 24.968064717195457 237.13812421030914 0.7629565321117936
2.0505979881501624 12.107682448785017 23.2106808203351 250.59407105638854 0.7857669536455764
2.056180865283604 12.044955023340227 21.614312539829015 264.98503547371695 0.8098506955054909
2.06064962504656 11.98016985024367 20.161133119683328 280.3927528431459 0.8353077714344775
2.063978803247398 11.913328785305609 18.839560861126834 296.9061678338358 0.862242970828634
2.066151189366624 11.844457932290373 17.63541059504868 314.62559518065706 0.8907770025694838
2.0671619138751103 11.773612173618893 16.538746608274522 333.6607162768234 0.9210371318675159
