M[M_sun], R[km], Lambda[1], P_c[MeV/fm^3], rho_c[fm^-3]
0.24162668629717493 15.618656898711224 2160425.4255784233 3.5677272577965504 0.1711233750220791
0.2536420892542758 15.27734289624562 1723285.8444025812 3.7848056254000233 0.1738879987916533
0.2660383165106266 14.981310538437697 1383171.5328745297 4.011372096312684 0.17666630598343228
0.27881213219616674 14.723597147382511 1116483.4205712175 4.2476831972671425 0.17945699208523785
0.29196516201025713 14.498502364483121 905959.731811148 4.494363871047524 0.18226661894609816
0.3055000051282384 14.301291439502457 738715.613792116 4.751568238214927 0.18509086376552306
0.3194160227985744 14.12819077474128 605138.3388417563 5.019981023967415 0.18793639896469183
0.333711400103881 13.976032386935671 497717.1098941831 5.299822900374491 0.1907997814495642
0.3483926335631637 13.842044499886391 411037.89341848093 5.591826390548323 0.1936873870374057
0.36345331217627674 13.724063711898358 340676.3977083574 5.896153833397457 0.1965941875540009
0.37890581717254174 13.620068392054135 283342.9191894961 6.2136713245585655 0.19952790624659977
0.3947367764846029 13.528528385612232 236440.90425741914 6.544639636804838 0.20248478133325004
0.41096025947773723 13.447931566728252 197890.5111854505 6.889754440718942 0.20546841050827216
0.427566808169765 13.377136818269502 166110.18710318475 7.249723736198806 0.20848192124089315
0.4445607301693795 13.314979225206896 139832.6753271149 7.624811368286388 0.21152093845642542
0.46194034266994016 13.26061836671947 118003.91717337014 8.015956562412377 0.2145914734094197
0.479702788064664 13.21320960750751 99828.9638796764 8.423868655471523 0.21769524537561605
0.49785824526628303 13.172030295923877 84660.73487674593 8.84899518956827 0.2208298194189625
0.5163949871110974 13.136443013026865 71953.66045315091 9.292196060373154 0.22399841467798617
0.5353115552333131 13.105884477700927 61289.59321265482 9.75436212996155 0.22720404123902813
0.5546162392640159 13.079839371365807 52310.804665843396 10.23630274412119 0.23044804964950638
0.5742965348855784 13.057891238382384 44740.16911607334 10.738498278503105 0.2337272547919386
0.594351715773625 13.039562806408917 38338.65005895931 11.262174939472702 0.23704761360404314
0.614785847277398 13.024525515327417 32909.11994237482 11.808278755274326 0.24041085287397293
0.6355857775848788 13.012446473670897 28301.566024371907 12.377788422806532 0.24381860499866218
0.6567563786538918 13.003042731314888 24377.499852880846 12.971405627458433 0.24726896503241877
0.6782862766810394 12.995994671952886 21033.791285466537 13.590431632001122 0.2507664344306798
0.7001721281054512 12.991072431039555 18178.135776134022 14.236075831224031 0.25431378764457163
0.7224039641793409 12.98799483330965 15734.516476040224 14.909527510495357 0.2579130085254972
0.7449894812060169 12.98664512015273 13638.406051810263 15.611832019516475 0.2615641528522471
0.7679070920389677 12.986760008640998 11839.050928509727 16.34422389010325 0.26526880171156697
0.7911490188883562 12.988124056931632 10292.902780033297 17.108333686699616 0.26903179784732595
0.8147224789409376 12.990656479925617 8959.480741578307 17.905615924073583 0.2728555727921547
0.838601509375906 12.994122371830336 7809.516640959598 18.737453303346 0.2767413658461772
0.8627800593653834 12.998391497183292 6816.956394914763 19.605154978184576 0.2806893450548899
0.8872518543043528 13.003332970253828 5957.188698634004 20.510822857796143 0.28470602202962936
0.9120124790094206 13.00882112791385 5213.128930449829 21.45625035616858 0.2887944087003753
0.9370286103323975 13.01471760327763 4566.889999178296 22.44294358517369 0.2929546063451431
0.9623027199935259 13.020924153504735 4006.037472432173 23.47288309234289 0.2971900580268066
0.9878270197659884 13.027311164115943 3517.8444792411788 24.548511618161886 0.301507036113121
1.013566319080959 13.033772861867108 3093.364573416564 25.671797160083994 0.30590736631270576
1.0395276920425145 13.040226458204485 2722.5643591428484 26.84464830504105 0.3103919222522048
1.0656761215150505 13.04655455219916 2399.211351808273 28.070185703379988 0.31496962524419864
1.0920047551147904 13.052686080623914 2116.431686315583 29.350493568859576 0.3196411256165452
1.1185017768770724 13.058517614457234 1869.3275624304079 30.688267377584022 0.3244106997024713
1.1451297721742824 13.063974289156759 1652.7387795553277 32.086968156082015 0.3292868218594558
1.1718901784373046 13.068988617457508 1462.768923764036 33.548468506990915 0.3342667482491584
1.198743354085329 13.073452960955532 1295.9670960900535 35.077341574913625 0.3393642575736532
1.2256872490238337 13.077318952435636 1149.5374153632993 36.67564920662123 0.3445763507983612
1.2526807044236736 13.08048850029833 1020.6037830069711 38.348372730350725 0.34991703928317697
1.2797196656415089 13.082926968629138 907.0678060059467 40.09780519867221 0.3553832298625566
1.3067621846996336 13.084516681412627 807.1245490610446 41.92940473679615 0.3609894073006504
1.3337979532811897 13.085232553538532 718.8367604871314 43.84658903585612 0.3667371440839134
1.3608043132907726 13.085035833912078 640.9019206316999 45.854149164805285 0.3726347713190065
1.3877332718894109 13.083781305618867 572.0923352787246 47.9573640244266 0.37869195294883895
1.4145881720078843 13.0814954762813 511.0541944033819 50.16092468247826 0.38491401530354374
1.441310378919197 13.078047856722906 457.06289984080604 52.47017044857205 0.3913085588012671
1.4679024321249505 13.073456688021464 409.1984721578505 54.89145356103719 0.3978869532904447
1.4943110791280705 13.067597172224046 366.70900613625685 57.430959795848295 0.40465825293200425
1.520521698427823 13.060458123391442 328.98745554566636 60.09531267173472 0.4116322214107399
1.54650416704656 13.051979493866375 295.42665588090364 62.89161285285604 0.41881939034622434
1.5722196377618074 13.0421073366236 265.58845655963887 65.82748132346714 0.42623112247115424
1.5976432991437541 13.030787959002307 239.0339169744277 68.91110671741531 0.43387968013514916
1.622723547840619 13.017946986610129 215.3362686887011 72.15129723289984 0.44177829976035377
1.647482416694111 13.003645201452425 194.19216896258413 75.55753761688649 0.44994127295089853
1.6718309208573554 12.987721413651913 175.31757621524312 79.13984163444397 0.4583831575050589
1.695769169315789 12.97018216017793 158.4428287007839 82.90823033300207 0.4671165260351919
1.719233475962374 12.950947827020565 143.35234834461693 86.87551201518207 0.4761632534233037
1.7422361764057028 12.93005475720293 129.83821681528298 91.05335618545647 0.485538067513035
1.7647168640473607 12.907415255728418 117.73545941104473 95.4556444746338 0.4952620830165319
1.7866456214511897 12.882993266532946 106.872842013416 100.09624090082598 0.505353617940712
1.8079856374361085 12.856749146713947 97.13232204662137 104.99155749229196 0.5158379532838631
1.8286982234114533 12.828627970967545 88.37527684317519 110.15811318886391 0.5267375732497964
1.848779104653988 12.798675371240401 80.50296152390914 115.61343816792393 0.5380755144213094
1.8681678350040474 12.76678348749831 73.41486539806317 121.37792493894325 0.549881822262639
1.8868414008333012 12.732946798481821 67.04136470295693 127.4728764820164 0.5621858888080361
1.9047670721566452 12.69714634475913 61.28910546955643 133.92084021052156 0.5750174280991295
1.921912835479712 12.659348756001174 56.103129231341185 140.74722284441953 0.5884118005672848
1.9382298493595536 12.61947445014484 51.41821876901855 147.97981017202716 0.6024077090796192
1.953741965673833 12.57768465334077 47.185622090484564 155.6472319603101 0.6170414165814836
1.9683522424489386 12.533739240412464 43.35985274432745 163.78295863173724 0.6323599680282795
1.9820729861968571 12.487759276718972 39.89814986699688 172.42057713540046 0.6484043615022561
1.994868325202895 12.439699857476015 36.76328815977794 181.59965334992194 0.6652287655653776
2.0067029223478676 12.389545412770438 33.920659482535186 191.36199938891514 0.6828870313550831
2.0175637276333074 12.337303700716271 31.34369272373198 201.75360675900953 0.7014383365228672
2.027406381114809 12.28293829325055 29.00492647727431 212.82455109734076 0.7209458637766067
2.0362235060398066 12.22649231290434 26.883037395749877 224.62992258091907 0.7414787472854445
2.043975098291017 12.167919346932223 24.953343275829386 237.23117787455254 0.7631151971573839
2.050643070723774 12.107235846732017 23.1987208311096 250.69484420740403 0.7859368343995361
2.0562177449107217 12.044488912312469 21.603181107589723 265.0940767082137 0.8100321464548558
2.0606801185360233 11.979681811446556 20.15149336050856 280.51076365301014 0.8355014750645562
2.0639989759462716 11.912822192622391 18.83040297121775 297.0341063283438 0.862450254113899
2.0661632067212743 11.843929687265737 17.62665169846627 314.76457347743536 0.8909994794876988
2.067165688046191 11.773061099185623 16.530379879831546 333.81165065678067 0.9212755206641052
