M[M_sun], R[km], Lambda[1], P_c[MeV/fm^3], rho_c[fm^-3]
0.24162668629717493 15.618656898711224 2160425.4255784233 3.5677272577965504 0.1711233750220791
0.253644028445681 15.27727977660589 1723178.532694101 3.7848200760252357 0.17388817891172537
0.26603992317662917 14.981268479547671 1383025.5641054825 4.01140247436768 0.176666673084299
0.2788150332045914 14.723542428380403 1116423.2123441817 4.247730530444223 0.1794575410787624
0.29196933302479855 14.498408608727836 905888.0547555282 4.494429401359103 0.1822673486413264
0.30550454146833894 14.301251146593907 738693.912023478 4.751654190663845 0.18509179221601407
0.31923519510659987 14.130019077751612 606530.2531684214 5.0118746406307615 0.2077563398018128
0.33064774557654836 13.99885321494418 516823.3255388208 5.324552467156547 0.2894435635589466
0.3396851084088157 13.890929608185214 453988.80893171526 5.6704624482776875 0.36008657958252643
0.3471025013065977 13.792648247371314 406166.07588605257 6.055379359106341 0.42887624413607695
0.3534153521400313 13.697087732818265 367346.28912077635 6.4817842249662645 0.49513502129622966
0.35898409715230845 13.60063624433044 334070.4299966255 6.950842750361615 0.5580315340431181
0.3640819544638291 13.501115631458788 304597.7407998549 7.460682005698191 0.6151168002780059
0.3689384358154396 13.39741656720709 277668.4388284422 8.010465152692316 0.668092049853027
0.3737276751151671 13.288995492429121 252596.14840883086 8.60109745936988 0.7184786413439775
0.3786014973422797 13.17582806780662 229046.56971455237 9.232780423645492 0.7664820018203956
0.38365682835266757 13.058324003449153 206849.8827951926 9.905663620829456 0.8122101058461092
0.38897886229207834 12.936780541462301 185936.30148711993 10.619945133015554 0.8558374485341876
0.39465892329691543 12.812062364634473 166269.6294008002 11.375959062639467 0.8975735740931959
0.40075466204878385 12.684814479811644 147945.55099211034 12.174223196354045 0.9376411856234971
0.40732589499515176 12.556034714992878 130938.90627924766 13.015462734599298 0.9762627718361698
0.41440434072140697 12.426591927234416 115294.7859167184 13.900620854987888 1.0136534470790526
0.4220386047408107 12.297374964784078 101016.45284590028 14.830862834803666 1.0500179310379119
0.4302487798534631 12.169252315221854 88127.48895412569 15.807577741556273 1.0855501732958646
0.43904908591961894 12.042974412609766 76551.9621660345 16.832380017555785 1.12043466990362
0.44846147566306904 11.9193858704296 66257.23460951126 17.90711230007279 1.1548489404944586
0.4585002045969205 11.799115522442007 57158.91922392716 19.027844587338276 1.1885595800418969
0.46914825070801347 11.682526913948832 49176.791877673306 20.201174781176867 1.2221101346572416
0.48041683690994047 11.57026375799737 42205.18385355784 21.430396991486887 1.2557424433352469
0.49229816427210454 11.462591065795108 36164.13896422247 22.716726946636136 1.2895847697290848
0.5047817533582135 11.359793920409464 30942.96633987274 24.056210161977166 1.3235975631582892
0.517847318993492 11.261880054717249 26456.80423379112 25.459929350504503 1.358494864634699
0.5314741890180663 11.168920707354928 22602.101619021167 26.924926676532067 1.39453325070859
0.5456479926970826 11.081186476794251 19310.9384565823 28.45617095264874 1.432497792829696
0.5603255838519937 10.998491961119635 16504.770216681525 30.057164453170028 1.4736943417369712
0.5754475295223749 10.920566352416072 14119.299493846538 31.731968753521134 1.5204380660143237
0.5909511546850642 10.847459124114875 12093.488132627974 33.48497680720606 1.5784835103766546
0.6067203577815403 10.778832044237978 10381.836514812627 35.32696794400218 1.6413825443601904
0.6229576759117508 10.713573128240819 8914.298328933663 37.24637078681588 1.6582380391806315
0.6398551470481761 10.651708407063994 7646.408800010814 39.24351676781734 1.6756728617543235
0.6573786005847789 10.593519227758291 6556.456493258906 41.32238282241052 1.6937262316325634
0.675479690560724 10.539060205352932 5623.227263165572 43.486043302666374 1.7124264638506455
0.6941266049293828 10.4880979617618 4824.581486821189 45.7381419263974 1.7318057476253483
0.7132815412290983 10.440893995674607 4143.071396322542 48.082315457891596 1.7518944871884619
0.7328859450921064 10.396981496853906 3561.82413759794 50.52459703854936 1.7727421180858927
0.7529190229140802 10.356273242178606 3066.080177224565 53.06938718877705 1.794377311925713
0.7733253341233656 10.318301541379718 2642.5198230861474 55.72211292559671 1.8168370026002725
0.7940700818462275 10.283343376912269 2281.7194084622834 58.48928567107574 1.8401672643685987
0.8151039889886322 10.250836845707031 1973.0285040521806 61.377694201238754 1.8644155056191205
0.8363831047022506 10.220556208773662 1709.3318619937393 64.39470842720709 1.8896332551121462
0.8578777326785699 10.192227284044096 1483.6009087022944 67.54207520708881 1.9158163378011708
0.8795376414005321 10.165793706109552 1290.022066066787 70.83361442631953 1.943074886633902
0.9013196082584821 10.140929374608941 1123.9579329033995 74.27267590188836 1.9714162673901707
0.9231826367945888 10.11736718251447 981.1788094418627 77.8720163956406 2.0009364983869165
0.9450911713268708 10.094758629789881 858.0822694482456 81.63605060395679 2.0316485188454796
0.9669917925164861 10.0732490257386 752.1108959961564 85.57746797868087 2.0636427521727336
0.9888695804203577 10.052400728131449 660.4158046699278 89.70663717637132 2.096984357533846
1.0106699320256998 10.032017769292034 580.9919843782095 94.03436256455254 2.1317395282267686
1.0323342670813969 10.012058568670566 512.2271853251347 98.572603664448 2.1679822008540524
1.0538405746624164 9.992335575640304 452.4848213528256 103.33452274270627 2.205794219501515
1.0751680335857003 9.972541529472636 400.4407440594199 108.33454978748412 2.2452656313889423
1.0962526065709197 9.952670164201336 355.1053539367373 113.58565561677644 2.286467240291345
1.117038889948577 9.93257010794867 315.53130703977047 119.10583473912915 2.32951427791342
1.1375331690676844 9.912033459094381 280.8425838600275 124.91179391810456 2.3745033580387855
1.1576991678922959 9.891025840460948 250.48416891758328 131.0234224551234 2.421556398055084
1.1774479841613241 9.869388377092697 223.8019571870112 137.45839114983664 2.4707656881133415
1.1967724981552998 9.847005327000346 200.3767352996724 144.24042294494654 2.522276207903068
1.2156505764459449 9.823762906765777 179.72001260933018 151.39312450981612 2.5762229132219505
1.2340415486216108 9.799673505353827 161.18044065062753 158.941729078845 2.6327471295247005
1.251900177590414 9.774533775946002 145.40245506491993 166.91296025060302 2.6919939504559713
1.2691921554872507 9.748239750905608 131.14666647118668 175.33921217118535 2.7541541619840633
1.2858946032499492 9.720798538980972 118.50879913097127 184.25048788950332 2.8193795796030425
1.3019732605863834 9.69205434980439 107.28337928835683 193.68423192395656 2.8878833170514278
1.317408837436205 9.662084956761479 97.31253670202439 203.67829455915816 2.959864920516717
1.3321455817489962 9.63067161974603 88.42357326773677 214.27458292419232 3.035546284374614
1.3461701318335866 9.597812356750978 80.49407004605749 225.5193916027546 3.1151730707887793
1.3594405772000413 9.563530687285311 73.41782333384118 237.4621821024498 3.198998932453622
1.3719756448356732 9.527700931751168 67.08008522350225 250.15824932279057 3.2873112626618504
1.3836952982612185 9.490282975668576 61.40234459913145 263.6662970821074 3.3804011967035033
1.394602752459015 9.45128422699154 56.31759218301756 278.052939472225 3.4786091361868494
1.4046772604012518 9.410637867784759 51.74717333418904 293.38905949616714 3.5822799211734995
1.4138850983850857 9.368383407915852 47.638560930390454 309.7541480531989 3.6918059770479794
1.4222189484554661 9.324448259129133 43.945364254669414 327.2345063728774 3.8076010565369485
1.4296546130752101 9.278812102525126 40.61598643451036 345.92578541012847 3.930122249683297
1.4361834938343019 9.231527611562923 37.55394113339805 365.93312156154616 4.059863557216976
1.4417863507009192 9.18253172058251 34.89478637428688 387.37182424199466 4.1973541901475695
1.4464349806474952 9.131857138519818 32.43609177375862 410.3707925934787 4.343188635662276
1.4501353267629216 9.07953260587432 30.218978248379305 435.071060158153 4.497996283973136
1.4528976077691242 9.025522650908172 28.211600796830613 461.6301424101998 4.662479746186993
1.454677805204246 8.969915967146779 26.356567596755248 490.2220797585737 4.837398226218075
1.455487100477167 8.912712922898313 24.708051807908678 521.0406303330885 5.023587477876078
