M[M_sun], R[km], Lambda[1], P_c[MeV/fm^3], rho_c[fm^-3]
0.24162668629717493 15.618656898711224 2160425.4255784233 3.5677272577965504 0.1711233750220791
0.2536448035000978 15.277271120636655 1723198.352796136 3.7848349700074757 0.1738883645580289
0.26604092740688423 14.98126443694256 1383003.5065022372 4.011433784618489 0.176667051450202
0.27881769677045976 14.723474481148019 1116411.9254281519 4.247779316369479 0.17945810692197656
0.29197278592156156 14.498356991745053 888626.3181828593 4.494496943274366 0.1822681007362285
0.3055098220121089 14.301163002144031 738663.9109840982 4.751742782086089 0.18509274917245358
0.3194271608543023 14.128072458985587 605057.2112381501 5.0201983253073665 0.18793865354996445
0.33372736476813136 13.975911499031477 497647.2445791016 5.300088680243266 0.19080245741183421
0.34840817995893797 13.84196703402787 410969.18037058745 5.592141312624234 0.19369043399512223
0.3634717781330951 13.723921645080141 340637.7777088289 5.896524972965929 0.19659767337536949
0.3789264819422857 13.619943828456128 283269.8094839972 6.214103173048933 0.19953184418485248
0.39476018147420106 13.528380507768958 236386.5274042591 6.545131745939187 0.2024890964655514
0.41098636889243756 13.447813988345493 197836.21556321942 6.890316310779759 0.20547319562948968
0.42759549707538597 13.377004889687484 166057.25587158915 7.25036063982977 0.2084871901814077
0.44459136086447437 13.314884908992644 139785.44294797102 7.625521545236574 0.21152659192159118
0.461975022269548 13.260520936183642 117962.05246495797 8.016752400041389 0.21459762985688718
0.4797405119424013 13.213123033456935 99794.991101954 8.42475635974075 0.21770191967073282
0.4978991248254361 13.171951223128062 84629.36272386584 8.84997148744483 0.22083688823272876
0.5164397837212852 13.13636088925709 71928.50366359876 9.293276751622503 0.22400602281175483
0.5353595853005766 13.10582883517941 61264.498672800306 9.755554542113304 0.22721220512379955
0.554667383073652 13.079785692748624 52293.84109452562 10.237614649963643 0.230456786430641
0.5743522438165676 13.05781939106441 44721.33334660431 10.739923977844207 0.23373640822333486
0.5944105090503895 13.039499611027267 38320.89365011604 11.263735873074962 0.23705736634543717
0.6148488948439857 13.024510794793812 32894.30282415771 11.809984144590523 0.24042122448639466
0.6356555541076188 13.012414637574997 28285.816878473317 12.379648064600955 0.2438296160757179
0.6568273913746713 13.00302081084954 24365.690631040234 12.973410981948355 0.24728042681634888
0.6783602931295722 12.995970539973298 21022.71034939266 13.592611176088228 0.250778569548222
0.7002511463500402 12.99105739221928 18168.56978418905 14.238441251529709 0.2543266201651743
0.7224853503020299 12.988000580771658 15725.091250171561 14.91209124453939 0.2579265639537948
0.7450764840700329 12.986645991244465 13630.713206710718 15.614582289353677 0.2615782104073288
0.7679985527939868 12.986763816595616 11833.415282882645 16.347197940683575 0.26528362660779226
0.7912466678499946 12.988143293033742 10217.65836125709 17.111546444507884 0.2690474204006165
0.8148211556901575 12.990679104578772 8953.882387538693 17.90908330521639 0.27287202526774773
0.8387064458233976 12.994129931675124 7805.537067426935 18.74115992850256 0.2767583958709122
0.8628889062291488 12.998408323639037 6812.191531742761 19.609149043182235 0.2807072639056094
0.8873710043374784 13.00336352864765 5953.686202235922 20.515123586402535 0.2847248684892211
0.9121245116291391 13.008873944592507 5209.545555989793 21.46087828856705 0.28881422416671654
0.937151432941029 13.014753763973017 4564.008300526016 22.447879442930024 0.2929751070882117
0.962437096736529 13.020959210184797 4003.4205525183756 23.478188817810135 0.2972116061544137
0.9879577435291421 13.027348221475851 3515.436538611477 24.55421218541491 0.30152968176063094
1.0137029379925315 13.033802154055543 3090.858116566732 25.67787050280059 0.3059308045119089
1.0396697900841314 13.040261272794629 2720.616347026865 26.85116867203466 0.31041655502458715
1.0658228783592614 13.046587744737073 2397.4594951868803 28.077183616844742 0.31499551356903077
1.092156238344898 13.052719421420122 2114.991820904991 29.357944226724776 0.31966794341013266
1.1186560881131558 13.058552814081505 1867.7919058405516 30.69625973421249 0.32443889325837
1.1452903212660976 13.064011014316197 1651.531073270864 32.095476125847775 0.3293160544055696
1.1720544688429824 13.069018144885062 1461.5587104756194 33.557591888456365 0.33429749498535694
1.1989116270668148 13.073474781076966 1295.001690719881 35.08712342907296 0.33939660351349143
1.2258594338905338 13.077340635414108 1148.6845547864639 36.68606114703765 0.34460993810641083
1.2528574816204847 13.080501628539174 1019.8217009209378 38.35949038863414 0.3499521384235358
1.2799006175907464 13.082944657352975 906.3953455348105 40.109687806751346 0.35541999068223057
1.306945802706187 13.084521194558029 806.5333083648859 41.94205724854367 0.3610276577605102
1.3339836311572988 13.085241469931695 718.3568447299634 43.860153308203984 0.36677746411625634
1.3609933625745887 13.085029493152023 640.3888825461556 45.8685967758494 0.3726767830093632
1.387926612194168 13.08376833769541 571.6110444984284 47.97275668467015 0.3787357654287509
1.4147774464600928 13.08146063305529 510.6536399066906 50.177431178836784 0.3849602683253938
1.44150825982704 13.078020710431804 456.7199908439881 52.4877645772242 0.3913568656865955
1.4681037661225356 13.073418074911537 408.87122818147424 54.91021322747587 0.3979374509386452
1.494513815306687 13.067548026810282 366.3961189623455 57.45096921604486 0.40471108882554435
1.5207260186267457 13.060399184159547 328.7241253866764 60.11666293713801 0.4116875544842694
1.546710439743121 13.051905118772622 295.1817749157319 62.914402551766436 0.4188773919418127
1.5724267062320016 13.042021521924712 265.36213810599617 65.85181722506626 0.4262919773889058
1.5978403854057004 13.030682605963817 238.81972221494522 68.93710452549203 0.43394358778951986
1.6229383157727177 13.017860499442374 215.15432003815982 72.17908241718196 0.44184547545373354
1.6476902458608926 13.003516511171823 194.0182683644719 75.5872463308651 0.4500119492774072
1.6720395757746427 12.987576637928326 175.16444425217279 79.17146660031283 0.4584569381886178
1.6959761874212929 12.97001856170887 158.3053850151017 82.94208010355287 0.4671943127093311
1.7194566448558453 12.950801463729675 143.22411112332875 86.91176084083327 0.4762453391786421
1.74243278505261 12.929824497993378 129.73748193392092 91.09201915448028 0.4856240783877857
1.764920927410377 12.907197233673607 117.63370683425659 95.4970940431088 0.49535303262500496
1.7868462211840406 12.88275868649403 106.78255332030773 100.14051316012751 0.5054491555555871
1.808183876169389 12.856492370905002 97.0489810036583 105.03888201741543 0.5159384470121589
1.8288967148281043 12.82835952239941 88.298396344492 110.20874970590587 0.5268434559309981
1.848971343983978 12.798372358373673 80.43162641443031 115.66784825297107 0.53818790688154
1.8683459432193197 12.766428445986426 73.35955501468663 121.43621690316058 0.5500004833401637
1.8870209024661575 12.7326031064148 66.98147875999922 127.53529588070165 0.5623110361193644
1.9049436749729407 12.696776784902118 61.23322901721987 133.98767885197253 0.5751493883305677
1.9220831783056926 12.658949855532686 56.051357781475346 140.81901255527123 0.5885516742242712
1.9383956111220748 12.619052366408798 51.37201690283914 148.05698086412008 0.6025561507453412
1.9538895248434167 12.577199877261478 47.144547529180485 155.73000164101452 0.6171982734117804
1.9685024373006395 12.533257851241565 43.32341310736783 163.8718288827887 0.6325259783958069
1.982215089967183 12.487251089068502 39.863857043261255 172.5163662329766 0.6485812255975671
1.9950009257674945 12.439162340433926 36.73111123054444 181.7027085376205 0.6654164820187116
2.006834789738536 12.388993858798228 33.890259195577 191.47298989297462 0.6830865603153617
2.0176778897598324 12.336709893029745 31.315305255903624 201.87327081400375 0.7016507284165963
2.027512227268788 12.2823164677187 28.980748651912837 212.9534021844814 0.7211712810446437
2.036318423337809 12.225836814090117 26.859676974483822 224.7691533302621 0.741719410950298
2.044058457369117 12.167233765896555 24.933267618690063 237.38146658383886 0.763371453212473
2.0507140317498727 12.106514956996861 23.178689934629958 250.8573759199448 0.7862104695726786
2.056283389014153 12.04375602104621 21.58620211211662 265.27019191099083 0.8103252123843544
2.0607252586315017 11.978896760053605 20.134814414871432 280.70123100958375 0.8358138858602259
2.0640270303423556 11.911990684779704 18.81499159911781 297.2407493343746 0.8627850528101931
2.0661830734340514 11.843076837895426 17.612543346442042 314.98905147920976 0.8913588246171147
2.0671680256502207 11.772179260910486 16.517206692531918 334.0554441999092 0.9216605730913859
