M[M_sun], R[km], Lambda[1], P_c[MeV/fm^3], rho_c[fm^-3]
0.24162668629717493 15.618656898711224 2160425.4255784233 3.5677272577965504 0.1711233750220791
0.2536444104945705 15.277280310000755 1723318.0540736371 3.7848273216976223 0.17388826922553624
0.26604082155382247 14.98124247622094 1382892.0235397345 4.011417706257351 0.17666685715269645
0.27881637322132885 14.723478206443504 1116398.5220360649 4.24775426391115 0.1794578163512132
0.2919715118278849 14.498401577552354 905880.6619444393 4.494462259230302 0.1822677145213481
0.30550912377706396 14.301105709173436 738605.4128019375 4.751697288665237 0.1850922577566829
0.31942386747856977 14.128115601539164 605083.8596323291 5.0201416872969435 0.18793806590874604
0.33372300232884256 13.97590125552647 497664.4703707478 5.300019406395501 0.19080175993913331
0.34840406391494444 13.842001804147461 410990.83503642987 5.592059229880248 0.19368963982199397
0.36346690341039684 13.72396530994194 340631.5479499699 5.896428237077389 0.19659676481143282
0.37892165769079544 13.619971360855248 283287.17447655555 6.213990613235005 0.1995308177748803
0.39475263636557006 13.528449876131921 236398.0708331601 6.545003478967056 0.202487971737486
0.41097951810791905 13.447869337889726 197857.68980598229 6.89016986027571 0.20547194839554164
0.42758809819477533 13.377054427202557 166073.65225429114 7.250194631355722 0.20848581683584624
0.44458386118969506 13.314924113185237 139797.13581914245 7.625336437531663 0.21152511834523624
0.4619658767827515 13.260551598637367 117978.82779237317 8.01654496414079 0.21459602517249132
0.47973128269907245 13.21315056794168 99805.07874796545 8.424524977895151 0.21770018000271982
0.49788995413686327 13.171975108708152 84635.7860234954 8.84971701271996 0.220835045726992
0.5164261939198033 13.136399270978535 71934.78271531739 9.292995065504753 0.2240040397239248
0.535345525042137 13.105841990206445 61270.809346405505 9.755243734464047 0.22721007717011268
0.5546545389868198 13.079792954120265 52302.826055673104 10.237272694565846 0.2304545091410889
0.5743374767721893 13.057830338929833 44726.878983213515 10.739552360455646 0.23373402232458762
0.5943962130192335 13.039508670225446 37989.663988207714 11.263329004651121 0.23705482422416221
0.614832957891994 13.024493608894769 32899.52455583992 11.809539621247904 0.2404185210428007
0.6356383568272087 13.012422164746964 28289.584336045376 12.37916333247111 0.24382674594080853
0.6568090316690733 13.003025252674338 24368.203552891304 12.97288826701763 0.2472774391921542
0.6783415335282433 12.995984665906484 21025.91584433338 13.592043055042389 0.2507754064024475
0.7002294248448647 12.99106533453601 18170.63739340937 14.23782467780892 0.25432327522264714
0.7224647672591118 12.987999598431703 15727.896223841219 14.911422975820424 0.25792303056517185
0.7450533946924187 12.986644069372705 13632.759627582403 15.613865395781733 0.2615745461229233
0.7679752167200935 12.986756248201512 11835.011771893125 16.346422713124458 0.26527976229284383
0.7912211704411097 12.988137110353286 10287.922852807236 17.110708991748712 0.26904334815143394
0.814796379406672 12.99066822939634 8955.355599009014 17.90817947804066 0.2728677366724256
0.8386791363961016 12.994131002687 7806.749853300015 18.740193735934074 0.27675395671598146
0.8628599760951888 12.998407995490526 6813.400930548696 19.60810792113861 0.280702593047601
0.8873419797492583 13.003355487823587 5954.541146475241 20.514002523324763 0.2847199558169907
0.9120988489259636 13.008847585178957 5179.8588398568745 21.459671929688724 0.28880905888734537
0.9371192466624796 13.014742309296823 4564.77873724388 22.44659281381158 0.29296976316334916
0.9624037486894386 13.020957150906622 4003.970247571936 23.47680577049714 0.29720598918833224
0.9879252484021179 13.027339826486633 3516.160513774032 24.55272620915847 0.30152377868239016
1.0136676543011445 13.03379551740931 3091.7313035690836 25.676287350023483 0.30592469482044404
1.039632338089768 13.040255955713254 2721.0691825631907 26.849468986281252 0.3104101339178724
1.0657840401833452 13.04658313292137 2397.838896711815 28.075359440867967 0.31498876514888013
1.0921176769364276 13.052706339180572 2115.553360529448 29.356002026242535 0.31966095268091377
1.1186161606205323 13.05854083197904 1868.3523253843196 30.694176318717044 0.32443154387520784
1.145247184342353 13.063997026949211 1651.8762484669926 32.093258295752825 0.32930843415981087
1.1720113106191428 13.069013798243377 1461.8796638357871 33.55521362588814 0.3342894799952929
1.1988685317444718 13.073472301029321 1295.2468758999778 35.084573507621485 0.33938817161453666
1.2258142181921252 13.07733531388746 1148.883357058543 36.68334696706312 0.34460118258195904
1.2528098930274691 13.08049757885407 1019.9975532921737 38.356600934012604 0.3499430398079346
1.279854946772253 13.082934058081362 906.5985731241595 40.10659023180803 0.35541040782018885
1.3068974858176163 13.08452278690155 806.6394333287816 41.93875896331402 0.361017686544573
1.3339350633643587 13.085240175257878 718.4798335708495 43.85661732882663 0.366766953356873
1.3609441656435082 13.085031857285331 640.5330084522468 45.86483051215871 0.37266583122615893
1.3878763857926324 13.08377454498149 571.7138176998264 47.9687440478626 0.3787243441690893
1.4147332834500856 13.081479099664506 510.7472072332592 50.17312816331926 0.38494821080171165
1.4414568111438057 13.078025000761532 456.8053611877236 52.48317801468728 0.3913442727043056
1.4680512173569045 13.073429655323094 408.9455946721987 54.90532280651793 0.39792428680494946
1.4944607139076245 13.067561539397136 366.4676459379428 57.44575297988577 0.4046973150881909
1.520673277389407 13.060413532104025 328.7919586650835 60.11109713629058 0.41167312970491776
1.546656834860756 13.051926783257416 295.24533010127635 62.90846148200648 0.4188622714469376
1.5723728032064535 13.04204482819163 265.4240142870386 65.84547304906319 0.4262761129958281
1.5977980621972074 13.030713152260677 238.88872632178226 68.93032707626348 0.43392692750487066
1.6228839805367343 13.017890546637888 215.19088711134165 72.17183898131066 0.4418279631413383
1.6476360396737104 13.003550348060523 194.06579618027197 75.5795014091583 0.4499935242922083
1.6719848513805369 12.987617424479833 175.19509083900982 79.16322209093933 0.45843770384257276
1.6959224395481671 12.97006153993161 158.33999293131464 82.9332555567017 0.46717403392636836
1.7194023801994944 12.950848783703226 143.25415587109495 86.90231082346513 0.47622393953880027
1.7423853413010715 12.92990737032735 129.75803138327672 91.08193973334429 0.48560165538585964
1.7648672392726743 12.907258307340134 117.65951830214738 95.48628810471811 0.49532932198332696
1.786794302846819 12.882821492046995 106.81061896557162 100.12897129498559 0.5054242487113405
1.8081321828220045 12.856558327453133 97.06926971050677 105.02654436665674 0.5159122479849121
1.8288414909009973 12.828421849756623 88.31533662426352 110.1955509775025 0.526815860900871
1.8489205232364567 12.798454182083567 80.45140474738946 115.6536632351622 0.5381586055296201
1.868297311681873 12.766512669094393 73.37632048102626 121.4210197843948 0.5499695475754793
1.8869756507970494 12.732690533194122 66.99865222748619 127.51905911301498 0.5622785395143653
1.9048983220536446 12.696872941482985 61.247750704376024 133.9702533904953 0.5751149850590539
1.922021035337312 12.65903582963009 56.06694164455741 141.2362766492956 0.6325109576224557
1.9337230902808524 12.621611444973748 52.301522753587484 148.75597006598736 1.1054771826886072
1.9364232171803843 12.579956589168635 50.14050279889653 158.5150906240848 1.588389051669704
