M[M_sun], R[km], Lambda[1], P_c[MeV/fm^3], rho_c[fm^-3]
0.24162668629717493 15.618656898711224 2160425.4255784233 3.5677272577965504 0.1711233750220791
0.25364407418057927 15.27727617059705 1723246.223888589 3.7848211060113504 0.1738881917500054
0.2660400755174748 14.981259388686905 1382943.6162912364 4.01140463960723 0.17666669924994113
0.278814665188925 14.723534602299646 1116504.2948653854 4.247733904193951 0.17945758020917513
0.2919697377832129 14.498427849563639 905894.9072057426 4.494434072152152 0.18226740065169103
0.3055047951750098 14.301241572006882 738666.371180008 4.75166031709914 0.18509185839320774
0.31942195521627303 14.128124449852573 605094.6007240443 5.0200956588603995 0.18793758834595156
0.333718984154667 13.97595860049703 497679.7230907513 5.299963109234412 0.19080119312013502
0.34840071867770345 13.842028969171707 411006.89873570437 5.591992523393039 0.19368899441837992
0.36346346427787 13.723989913993519 340649.88321677985 5.896349622550745 0.19659602644716198
0.37891657376439397 13.62000522575172 283309.0937068357 6.213899139265325 0.19952998364241864
0.3947496718540813 13.528450374462636 236411.01272745035 6.544899240486393 0.20248705770682987
0.4109739980723014 13.44789074490094 197869.13388419242 6.890050844891805 0.20547093481058942
0.42758189711073274 13.377054645470666 166085.9909603417 7.250059722177771 0.2084847007667913
0.4445769871926283 13.314948185572616 139805.38125563302 7.625186007396451 0.21152392082463367
0.4619582411819367 13.260570036001715 117982.63814833207 8.016376389091823 0.2145947211082005
0.4797230683868678 13.213157320837594 99811.71235285068 8.42433694333335 0.21769876624568255
0.4978805954940698 13.171979649919974 84641.10363476639 8.849510211926415 0.22083354840088756
0.5164185022757354 13.13640030349647 71939.13858474545 9.292766151674181 0.22400242815628646
0.5353370641369576 13.105847855339766 61277.16829972279 9.754991155410755 0.22720834788021596
0.554644300813246 13.079816892438021 52300.87099204096 10.236994803782759 0.23045265849687907
0.5743261034855549 13.057841055820795 44730.314065147664 10.739250365361727 0.2337320834225383
0.5943828123320405 13.039521632763712 38328.38852650689 11.262998363501572 0.23705275837227643
0.61481971203697 13.024501929622552 32902.40409891029 11.80917838065751 0.2404163240972945
0.6356233088012586 13.012435937836253 28060.700191534004 12.378769417183086 0.24382441353915846
0.6567937749858762 13.003015603189832 24371.38178940605 12.972463485960915 0.24727501131782367
0.6783268070590251 12.995969383595563 21028.544531435644 13.591581375984886 0.25077283589714655
0.7002140714282821 12.99106254694755 18172.37425690094 14.237323625153802 0.25432055698753925
0.7224470096627296 12.98800803692259 15729.77587236875 14.910879914902859 0.25792015919739236
0.7450358170482476 12.986644410528509 13537.712260992004 15.61328282147887 0.2615715683895239
0.7679554894650688 12.986747985730489 11836.302445313937 16.34579273582528 0.2652766220140112
0.7911998805048406 12.988143039098075 10289.0141628307 17.110028449533043 0.2690400389050901
0.814774918283839 12.99066748221274 8956.546269765544 17.907444999348716 0.27286425162355005
0.8386554426414202 12.99413984776809 7807.473117642004 18.739408578541358 0.27675034932401327
0.8628373476028735 12.998404536191417 6814.823105186644 19.607261875636087 0.28069879737500414
0.8873185475532929 13.00335973114444 5955.635653557881 20.513091517463153 0.28471596364805146
0.9120724435708846 13.008844758520178 5211.181461585396 21.458691612350094 0.28880486145238854
0.9370938514990852 13.014738598392402 4565.387270000178 22.445547268752186 0.29296542056441555
0.9623712958679433 13.02093420844817 4004.452737993562 23.47568187626437 0.29720142471991146
0.9878966431516681 13.027330993803373 3516.596138026371 24.551518675360164 0.3015189817238527
1.013638774315123 13.033795155247812 3091.9116831865613 25.67500085100647 0.3059197299729717
1.0396030155984628 13.040248643560163 2721.5395650170663 26.848087793589844 0.310404916020595
1.0657535156519586 13.046574595594512 2398.379737702523 28.073877088792216 0.31498328128397585
1.0920852424473764 13.052697121269148 2115.8356088028604 29.354423768682473 0.3196552719227526
1.1185836303487982 13.058536401502593 1868.617425865043 30.692483311970435 0.32442557168420505
1.1452146113606825 13.06399709618017 1652.132356449301 32.091456065643285 0.329302241874667
1.1719780801761357 13.069002897866977 1462.098610578097 33.553281031446275 0.334282966952765
1.1988314856729485 13.073467940271644 1295.5255140378856 35.082501426890204 0.3393813198053007
1.2257781081736239 13.077327395893755 1149.0903415447992 36.68114141329566 0.3445940678069176
1.2527732011694517 13.080493780300152 1020.1702157530544 38.35425295607659 0.34993564625050666
1.2798152949881607 13.082932070976245 906.7206075985586 40.104073141132766 0.35540262078254525
1.3068597538656617 13.084519768915422 806.773698136152 41.93607878094346 0.36100958394722094
1.3338964466555097 13.085233535683871 718.622776447652 43.85374400394348 0.36675841234934603
1.360903639695779 13.08503238676048 640.6268229701276 45.861770065596275 0.37265693186328563
1.387834829390829 13.083773386159256 571.8210183964496 47.965483406903196 0.37871506333236105
1.4146914072679146 13.081484223476773 510.8379095132268 50.16963157210712 0.3849384129678029
1.441414773922654 13.078033577359651 456.88203821626144 52.47945102421976 0.3913340397848645
1.4680086566803814 13.073435012616207 409.0112878775696 54.90134891324186 0.3979135897989394
1.4944177703040848 13.06757159625283 366.538399182801 57.441514343396705 0.4046861227525764
1.5206298897128994 13.060425084024965 328.8415215286122 60.10657445963605 0.4116614083705386
1.5466132281202363 13.051941440576483 295.2970445317628 62.90363388004636 0.4188499848161377
1.5723291051849706 13.042061109582454 265.4699136774556 65.84031790355522 0.4262632219198757
1.5977535829395524 13.030733528097706 238.92703320467402 68.92481987618349 0.4339133897389858
1.6228397236631376 13.017914647691438 215.24265120195417 72.16595314673049 0.4418137330748746
1.6475927039378222 13.003575841012276 194.10772767913446 75.57320809680022 0.4499785526512493
1.6719411017333412 12.987643884424902 175.2396923648983 79.15652284274748 0.45842207457318557
1.6958781247952048 12.970098638967514 158.36595733449337 82.92608500735089 0.4671575560248442
1.7193587276546773 12.950887284222146 143.2813095786536 86.89463205882517 0.4762065509149149
1.7423444271605346 12.929947308353345 129.77940570680317 91.07374955726365 0.48558343525877573
1.7648243071568601 12.907302516203815 117.68501137567158 95.47750761370305 0.49531005562545155
1.7867503521038437 12.882864949278947 106.81715583556253 100.11959284347088 0.5054040104198443
1.8080909316312193 12.856614108467783 97.08525797923038 105.01651932002098 0.5158909597773677
1.8288002359972946 12.82848078507282 88.3325028767247 110.1848262869913 0.5267934384258629
1.848880612926205 12.798518263163889 80.46669810488011 115.64213716965475 0.5381347966556211
1.8682570570212231 12.766584527555652 73.38929663035294 121.40867137209575 0.5499444107332268
1.886937277456932 12.73276348390603 67.01120106290843 127.50584295321293 0.5622520522526835
1.904859751192152 12.696951903189474 61.25696454108877 133.95609442485642 0.5750870308645629
1.922003075802819 12.659137463273689 56.07635955754128 140.78508838481574 0.5884855770395139
1.9383177294127325 12.619252876001747 51.393748136198944 148.0205137729159 0.602486004481059
1.9538147399176118 12.577410396191857 47.16358791828105 155.69088860106015 0.6171241502857963
1.9684322221545631 12.533483732080484 43.34295617533849 163.8298328442661 0.6324475294468354
1.982148316891488 12.487489482713848 39.88109997289242 172.47110046753554 0.6484976473109367
1.9949382137610137 12.439417170117617 36.74498953252224 181.65400893720783 0.6653277750213017
2.0067754841611976 12.38926055297684 33.902798691397216 191.42054017198083 0.6829922708228915
2.0176239806527496 12.33699052465468 31.329261408966442 201.81672207016013 0.7015503599743474
2.027461629802329 12.282608616810416 28.99192775382531 212.89251174202968 0.7210647568585339
2.036273345750834 12.226148213977849 26.87103329890228 224.703357520409 0.7416056813265909
2.0440196703072933 12.167556450249304 24.94258017039307 237.31044483136716 0.7632503546003394
2.0506805054783883 12.106855178397483 23.188137975543455 250.78061504735743 0.7860813102616001
2.05625418339833 12.04411358693432 21.593937873493235 265.1869645393383 0.8101867172025162
2.0607033365810676 11.97926832562016 20.142316132478527 280.6112207631912 0.8356662481064407
2.0640107617959647 11.912376253974884 18.82179790425521 297.143094352604 0.8626268342417963
2.066173363812868 11.843480490970393 17.619173645852005 314.88296748416246 0.8911890050061599
2.067168269402679 11.772595365016958 16.52432174844046 333.9402314268744 0.9214786037195088
