M[M_sun], R[km], Lambda[1], P_c[MeV/fm^3], rho_c[fm^-3]
0.24162668629717493 15.618656898711224 2160425.4255784233 3.5677272577965504 0.1711233750220791
0.2536445039714014 15.277255520658365 1723178.6642244922 3.78483364356027 0.17388834802450437
0.2660407383993368 14.981269012828996 1382960.431396086 4.011430996143276 0.17666701775312468
0.27881708250750664 14.723489200214061 1116380.4676353587 4.247774971508803 0.1794580565281403
0.2919724351391092 14.498364426303425 905801.1397551269 4.494490927996131 0.1822680337547093
0.3055091124114904 14.30117930542586 725415.4701996266 4.751734892121083 0.18509266394577328
0.31942605483173736 14.128094415794449 605041.5695737489 5.0201885025156425 0.18793855163470907
0.3337262693150032 13.97587383560667 497636.02040257986 5.300076665991285 0.190802336448252
0.3484074628532922 13.841973121315924 410972.9795280519 5.592127076894368 0.19369029626051965
0.3634707671741661 13.723943447618607 340626.959055263 5.89650819590177 0.1965975158016325
0.3789255421620999 13.619947089709852 279366.58655623876 6.214083651594506 0.19953166617269347
0.39475827932864443 13.528424104832707 236381.98936492507 6.545109500341867 0.20248890140171524
0.4109851933161703 13.447818747694443 197835.06241681566 6.890290911549523 0.20547297931898661
0.42759359241771666 13.377019605609044 166057.91928598055 7.25033184858815 0.20848695199884434
0.44459029590376614 13.314904976005979 139784.95388406448 7.625489441540273 0.211526336355526
0.4619733983005498 13.260523803152934 117967.16959020894 8.016716423872902 0.21459735155213844
0.4797389352171406 13.213132129195138 99807.67446105632 8.424716230521392 0.21770161795510287
0.49789744951261133 13.17196430957425 84630.90851257405 8.849927353121391 0.22083656868136992
0.5164374649356499 13.13637330849439 71927.47501952761 9.293227897895454 0.22400567887847073
0.5353575557531864 13.10581347892594 61265.69510134819 9.75550063769155 0.22721183606559497
0.5546651524215771 13.079780690197813 52296.420270634255 10.237555343423116 0.23045639147221664
0.5743497565293575 13.057815012450513 44722.34307025073 10.73985952686377 0.23373599442807602
0.5944080624889047 13.039514219001349 38321.71360559934 11.263665308306894 0.23705692545548934
0.614846275161776 13.024484783196549 32895.88806205985 11.809907049107506 0.24042075561722695
0.6356522155137223 13.012419768743788 28285.90225134936 12.379563995461957 0.2438291182961077
0.6568243322904658 13.003015596804426 24365.917811283085 12.973320325216376 0.24727990865964442
0.678357377770588 12.995970151140513 21023.2683374265 13.592512644278404 0.25077802094950313
0.7002469120757986 12.991047631883978 18168.40778555537 14.238334316247206 0.25432604003604775
0.7224825156282741 12.988002031096789 15725.638394002055 14.911975343435532 0.2579259511409695
0.7450724993457976 12.986639192418291 13631.031826675042 15.614457954902742 0.26157757489208994
0.7679948763688891 12.986762253390822 11833.962440021862 16.34706348894353 0.26528295639958976
0.7912418589078317 12.988145203796053 10286.74251268683 17.111401200584424 0.26904671412860043
0.8148194270350567 12.99066593892848 8954.312122688367 17.908926549466017 0.2728712814729207
0.8387005968414847 12.994144363138025 7805.741804129309 18.740992356240653 0.27675762596307296
0.8628838223823134 12.998415789400617 6770.333904097695 19.608968475295615 0.2807064538113803
0.8873672957434058 13.003367483599213 5953.939142030305 20.514929153679216 0.2847240164548802
0.9121244236716429 13.008860096057697 5209.8110178497045 21.460669062267755 0.28881332832029216
0.9371448275376646 13.014746801249155 4564.025013970656 22.44765629468232 0.29297418025743205
0.9624312551989439 13.020963410115073 4003.5523395056293 23.477948946898486 0.2972106319673689
0.9879533662389189 13.02735095591406 3515.6485750595234 24.553954462600327 0.30152865795023537
1.01369732242305 13.033799667612813 3090.986983564874 25.677595925782374 0.3059297448663151
1.0396618582131911 13.040266275153089 2720.6951134368132 26.850873883597338 0.31041544136695337
1.065817302292571 13.04658132825471 2397.550153460957 28.076867236860277 0.31499434314189567
1.0921495305359108 13.052718706975929 2115.0869643010915 29.35760737661228 0.3196667309565547
1.1186491047456686 13.058550809185896 1867.8697831902198 30.695898391754106 0.32443761859943365
1.14528206265632 13.064004419044162 1651.5844437805508 32.09509147051662 0.3293147327677388
1.1720468841274554 13.069017628372327 1461.6246306413518 33.557179407635715 0.3342961048824628
1.1989043944864115 13.073471299347506 1295.039501168077 35.086681175608945 0.33939514110118113
1.2258512176263536 13.07733949826166 1148.7021207283844 36.68559040446582 0.3446084195637435
1.2528481553069726 13.080502874176398 1019.8463173949594 38.358989246277545 0.34995056037429767
1.2798916989561626 13.08293827825712 906.4348787105044 40.10915056772364 0.3554183286441588
1.3069369940944813 13.084524753900729 806.556716012383 41.9414851980654 0.36102592836524916
1.3339751082476952 13.085236993531682 718.3766935555689 43.85954003162414 0.36677564114109773
1.3609852867194139 13.085032628081882 640.4054387827928 45.86794355835825 0.3726748835416318
1.3879174368763145 13.08376992433017 571.6198164035347 47.97206073574599 0.3787337845334556
1.4147673971301438 13.08146344175869 510.6544388515888 50.176684865909216 0.3849581770743254
1.4414996360838028 13.078020723583371 456.73294541319325 52.48696908521459 0.3913546815635822
1.468094665743536 13.073419306118145 408.8869084914726 54.909365033457355 0.3979351677528917
1.4945049752781077 13.067549678610844 366.4144720109737 57.45006451170056 0.40470869990762715
1.5207169665171545 13.060400951771165 328.73827870085023 60.11569760320628 0.4116850526468254
1.5467010930518656 13.051908471601877 295.1913393718045 62.913372129936434 0.41887476943633317
1.5724173032955564 13.042024259782462 265.3746538840061 65.85071688703837 0.42628922585821305
1.5978311934661718 13.030686751766407 238.82984337511775 68.935929038887 0.43394069821546616
1.6229293292193525 13.017863866520683 215.16474037704143 72.17782610793789 0.4418424380995914
1.6476813666655759 13.00352131031603 194.03206363043333 75.58590304172303 0.45000875362437187
1.6720304780527147 12.987584334010828 175.17024513782954 79.17003666053802 0.45845360215548275
1.6959670993398221 12.970025652174899 158.31140575205166 82.9405495592431 0.4671907955229649
1.719447312236798 12.950809514724796 143.2296881582387 86.91012181168152 0.4762416275840311
1.7424235180752838 12.92983290058117 129.73122128979313 91.09027095830794 0.4856201892947901
1.7649107745242134 12.907208359533959 117.63792204093481 95.49521983562282 0.4953489201952905
1.786837631804547 12.882767909370607 106.7891566846777 100.13851130929963 0.5054448356483483
1.8081749042787432 12.856504825875033 97.0498057772481 105.03674214075481 0.5159339029795846
1.8288835444209708 12.828362962558868 88.29854234218666 110.2064604785183 0.526838669765483
1.8489626799568244 12.798387193133571 80.43538445373689 115.66538795674694 0.5381828247585239
1.8683375091657939 12.766443262185108 73.36223057889886 121.43358106112008 0.5499951177316976
1.887014399016308 12.732617111181387 66.98394521455852 127.53247971472796 0.5623053997861345
1.9049362107729784 12.696793247322491 61.234960504154216 133.98465650996025 0.5751434212890065
1.9220750075446493 12.658968305234364 56.053199157869905 140.8157663111857 0.5885453493063084
1.9383879231126369 12.619072079393836 51.3742252217888 148.05349127389806 0.6025494383449312
1.953881856521181 12.577221812251263 47.148426726084885 155.72625884510254 0.6171911804388679
1.9650261968934835 12.536719640881113 43.95643703968805 164.55443649510676 1.2189160168452706
