M[M_sun], R[km], Lambda[1], P_c[MeV/fm^3], rho_c[fm^-3]
0.24162668629717493 15.618656898711224 2160425.4255784233 3.5677272577965504 0.1711233750220791
0.25364149517521134 15.277382852055307 1723245.8386100668 3.784790819925568 0.1738878142485566
0.26603666842680695 14.981337426715738 1383102.6581529498 4.011340972465531 0.17666592987010749
0.2788101195783377 14.723594450881322 1116475.4759053723 4.247634702300412 0.17945642961670413
0.2919620505477286 14.498547797563697 906021.0346055288 4.494296732645457 0.18226587134440914
0.3054954510788377 14.301367378536634 738803.6265146541 4.751480176984506 0.1850899125361671
0.31940990391188934 14.128278853367226 605203.7350044372 5.0198713914703434 0.18793526148522047
0.3337063214797964 13.976121274722743 497798.72938294895 5.299688810606331 0.190798431388094
0.34838450423043266 13.842161331139767 411069.5929815914 5.591667508970347 0.193685849814432
0.36344511542321173 13.724110933650259 340726.70476836094 5.895966590898208 0.19659242893282322
0.37889616666558495 13.620134214364205 283367.3543821954 6.213453455612374 0.19952591954414178
0.39472425758699775 13.528593479068535 236466.7726831413 6.544391367864427 0.20248260435003754
0.41094705002603915 13.448017984787725 197926.68933549544 6.889470979483515 0.20546599643344135
0.4275522599410578 13.37720577637365 166141.84138071854 7.249402423161174 0.2084792631004783
0.444545048691606 13.315021695097624 139847.68985611916 7.62445309175145 0.21151808634483626
0.46192237837055683 13.260671147155968 118020.50685309042 8.015555073872363 0.21458836757097313
0.47968390127246835 13.213290917325432 99844.42749661581 8.423420824735395 0.21769187831453624
0.49783708960510353 13.172081542684028 84673.31420907156 8.848502668045008 0.2208262533526958
0.5163717584632355 13.136490090673407 71968.26394633349 9.291650878446172 0.22399457656323207
0.5352861473675276 13.105926323435755 61303.85527351143 9.75376059182725 0.22719992279054801
0.5545892495725387 13.079877178576657 52321.967256602904 10.235640929433321 0.23044364222185992
0.5742682492943074 13.057914991475249 44750.88283135419 10.737779062938301 0.23372263720522746
0.5943216760703072 13.039573864520477 38013.14426000756 11.26138750839754 0.23704269372043593
0.6147553830849208 13.0245386393666 32639.84699497692 11.807418457790371 0.24040562082989583
0.6355526386477612 13.012458652032427 28307.76903171761 12.376850317894489 0.24381305040986778
0.6567203231553044 13.003046559568805 24383.60371700887 12.970394022987275 0.24726318311608958
0.6782479715585156 12.996004318321651 21038.73461978352 13.589332164860332 0.25076031289220474
0.7001321473632403 12.991081318879067 18182.425818782238 14.234882607375614 0.25430731434695864
0.722361965723216 12.988011925952426 15737.664409413777 14.908234257245127 0.2579061706080677
0.7449443990169289 12.986650215827801 13642.177290738273 15.610444677833419 0.2615570616818234
0.7678607684508818 12.986756546158876 11842.466509380303 16.34272367517431 0.2652613235164131
0.7911011177793748 12.988121274368284 10295.22559205944 17.106713070728485 0.26902391734064496
0.8146702175061796 12.990655243712688 8962.016905396993 17.903866880241658 0.27284727370423484
0.8385483524784936 12.99411465072933 7811.8808000889485 18.735583588769472 0.2767327754751143
0.8627247279423755 12.998373553876188 6776.572024787383 19.603140285817467 0.28068030640083863
0.8871957934197263 13.003328794193111 5959.572539666275 20.508653492929184 0.284696515536417
0.9119502623730261 13.008822096579085 5214.746127862648 21.453915960304137 0.2887844134932944
0.9369653893321757 13.01470741205451 4568.357899713304 22.440453881573717 0.29294426553381103
0.9622389377745377 13.020906715100878 4007.1591637276692 23.470206842290658 0.2971791889801531
0.9877604676184838 13.027301573025964 3519.062299448968 24.545636227444188 0.30149561355081167
1.013497933328213 13.033757150547478 3094.1158188827885 25.66873375763831 0.30589554405268987
1.03945580719472 13.040211163667838 2723.3906215775114 26.84135944690779 0.31037949753840055
1.0656050460033115 13.046546805388374 2399.9367282335133 28.0666559978773 0.3149565673287106
1.0919298223618867 13.05266874309312 2117.2981279741844 29.346735524206085 0.3196275989632438
1.118422963730173 13.058502540497006 1870.0172141396013 30.68423613516103 0.32439647923360615
1.1450494670431874 13.063961975723695 1653.2249727917103 32.08267687110854 0.32927207742696146
1.1718078962506835 13.068979221198825 1463.2611667591996 33.54386685331258 0.33425124020181207
1.198659059940262 13.073436783375932 1296.4532785008416 35.0724078387959 0.3393479430458507
1.2255995063975158 13.077308741033 1149.8986086589593 36.67039770307211 0.34455941026082704
1.2525917336678682 13.080472819812007 1021.0021228043921 38.342743050937685 0.34989920569294486
1.27963057329314 13.082925159717007 907.4365451555853 40.09181201633256 0.3553646889585906
1.3066698620388852 13.084518078020933 807.4474574781857 41.92302328349877 0.36097011520054645
1.3337033229618402 13.08523169528858 719.1385372237023 43.83974778111508 0.3667168083367866
1.3607081932509355 13.085037954518267 641.1734324086568 45.84686244061753 0.3726135825148952
1.3876362381952272 13.083786122648625 572.3089109415247 47.94960071408271 0.3786698560615491
1.4144891458465345 13.081505880824015 511.26245754542344 50.15259967916985 0.38489068772683926
1.4412175619622913 13.078083209601791 457.2572602480641 52.46129696529875 0.39128419554080546
1.4678034819683787 13.07347395689186 409.3761922678376 54.881992316296476 0.3978614853211705
1.4942089711326974 13.067618562623268 366.86327413363887 57.42086832674111 0.40463160589365066
1.5204176014259363 13.060489244246295 329.12356557677634 60.084545049172455 0.4116043151697765
1.54640068769096 13.052016590013027 295.55641206266756 62.8801193683545 0.4187901385143954
1.5721154278725127 13.042149873163254 265.701388737057 65.81520814436416 0.42620043187595197
1.5975381160299904 13.030839188139852 239.1361214399802 68.8979955069636 0.43384745023701865
1.6226253827772685 13.018037271675524 215.43150446053588 72.1372847312518 0.441744422010808
1.6473772030193872 13.003709314865134 194.2841734702799 75.54255517849045 0.4499056300850129
1.6717265983633511 12.987794792370805 175.3991661608837 79.12389292611634 0.4583459493509956
1.6956645902300256 12.97026637316531 158.5078337417708 82.89115979358064 0.4670772979853189
1.7191368488250343 12.951066091625247 143.42343869863717 86.8572317948971 0.47612185771839777
1.742133674679256 12.930154909497643 129.9068025726615 91.0338586743701 0.48549469272764373
1.764618490223459 12.907534098177743 117.7848620630097 95.43474190171881 0.49521621810423866
1.7865444476094086 12.883110985320712 106.9222883706322 100.07391506733195 0.5053054397606107
1.807885496045893 12.856877069908217 97.17755870544893 104.96769265933229 0.5157872762610506
1.8285992979803691 12.82876685251127 88.41578556313023 110.13248217220152 0.5266838209470938
1.8486830211278251 12.798825762393038 80.53950050097241 115.58600077496418 0.538018838235371
1.8680740435719572 12.76694505868747 73.4510377240902 121.3485303168938 0.5498219855840736
1.8867489990154782 12.733123762571855 67.0704523202669 127.4413596474501 0.5621226347725388
1.9046792207420284 12.697332616207726 61.31586429318482 133.88713644322252 0.5749508863975543
1.9218265965647099 12.659547127311495 56.12753154310968 140.71102286256908 0.5883412692364828
1.938153700205953 12.619717283833873 51.44120204861715 147.9408972621953 0.6023328581615196
1.9536524092716003 12.5778820492928 47.20783594099218 155.6054962189769 0.6169623231738506
1.9682767668486871 12.533978909084619 43.3794443906492 163.7380305790564 0.6322758651285156
1.9820029738177787 12.488015228276605 39.91721479717761 172.3722775987257 0.6483151816887482
1.9948017440292571 12.439968387645072 36.77971363394154 181.54769064583803 0.6651341147793851
2.0066437982701584 12.389825619388386 33.93676809745629 191.30603619163728 0.6827864256441591
2.0175052251288563 12.337604533945974 31.35617086605796 201.69327096605323 0.701331246442005
2.0273536839901594 12.283256962126545 29.018721386345124 212.7595838788493 0.7208322075147212
2.0361766374763626 12.226823265908795 26.894421373275765 224.55972283410216 0.7413574053518526
2.0439330532567914 12.168266698428342 24.964482492715636 237.15540370806087 0.762985995242782
2.050606602437849 12.10759861812782 23.207986817221887 250.6127839256632 0.785798499313337
2.056187210839694 12.044868178105006 21.612584963962533 265.0052835738598 0.8098843895205184
2.0606547981647134 11.98007917573086 20.159174335973574 280.4146900721519 0.8353438177301278
2.0639823694668533 11.913234182112713 18.837544074143317 296.92992477851993 0.8622814613358181
2.066153286163787 11.844359783382906 17.633647372394275 314.65140197453275 0.8908183141706731
2.0671627174086877 11.77350592853006 16.537653708543946 333.68874304322645 0.9210813979062873
