M[M_sun], R[km], Lambda[1], P_c[MeV/fm^3], rho_c[fm^-3]
0.24162668629717493 15.618656898711224 2160425.4255784233 3.5677272577965504 0.1711233750220791
0.2536441399200305 15.277268848396933 1723261.2723673284 3.784821698611344 0.17388819913647843
0.26604006208164843 14.98124837357704 1383000.6577081713 4.011405885372919 0.1766667143042843
0.27881553420103405 14.72349484863099 1116426.9717805835 4.247735845273794 0.17945760272277617
0.29197005618879446 14.498403554864076 905880.0874160094 4.4944367594839205 0.18226743057575398
0.3055054388560376 14.301217721967138 738661.2955912722 4.751663841932871 0.18509189646813928
0.3194215156749537 14.128142562694896 605107.5182770618 5.020100047163316 0.18793763387628806
0.33371955960447075 13.975945767560722 497685.47825807496 5.299968476541508 0.1908012471600115
0.34840104095690244 13.842027309132327 411006.7277736392 5.591998883107599 0.19368905595036778
0.3634636092809445 13.723992187819809 340651.74842817354 5.896357117555975 0.1965960968418372
0.3789170229510457 13.62000050449559 283310.85969366273 6.213907860264575 0.19953006316743105
0.394749608880062 13.528443960729334 236414.21256557037 6.544909178427497 0.20248714484914787
0.41097431086110103 13.447869804850345 197864.5695329973 6.890062191630218 0.20547103144417522
0.42758102248293456 13.377093472581087 166078.33618251455 7.250072584193435 0.20848480717095064
0.4445774352100224 13.314930191110196 139797.247407025 7.625200349142366 0.21152403499415287
0.4619590613812301 13.26056816928102 117983.42910947204 8.016392460727392 0.21459484543529497
0.47972387545987866 13.213153099281604 99806.43418688286 8.424354870186871 0.21769890103055975
0.4978814494653379 13.171979571336793 84644.55398464685 8.849529927900669 0.22083369115296514
0.5164190948900454 13.13640409378107 71939.09259775939 9.292787975841629 0.22400258179978585
0.5353382473402029 13.105838410703017 61276.011758470246 9.755015235749715 0.22720851274696294
0.5546442106936463 13.07982535002122 52301.139308391066 10.237021297263528 0.23045283493312585
0.5743274247800784 13.057849799612091 44729.710637418764 10.739279156871122 0.2337322682729471
0.5943840009646764 13.039520402485063 37994.619365560975 11.26302988603143 0.23705295532561343
0.6148204015550672 13.02450406557518 32901.71317243426 11.80921282043391 0.24041653354859652
0.6356250997707996 13.012434123237385 28291.58529187411 12.378806972050548 0.24382463590431536
0.6567946192303742 13.003017303338767 24371.121597558827 12.972503983461133 0.24727524278492813
0.6783264543291054 12.995976571415476 21027.954266797162 13.59162539120412 0.25077308096209483
0.7002152099895801 12.991063630760332 18172.280853917 14.237371394102277 0.2543208161364161
0.7224496802449135 12.987990769848391 15729.741017693912 14.910931688755223 0.2579204329452661
0.7450375814471146 12.986642074212225 13537.40839785422 15.613338362382386 0.2615718522777809
0.767957668192239 12.986752857653658 11836.64243736204 16.345852795936896 0.265276921398604
0.79120175569812 12.988138549914 10289.012272431535 17.110093330292163 0.2690403543982512
0.81477697446949 12.99066847094239 8956.19827348499 17.907515022180252 0.27286458387687884
0.8386582276825824 12.994125015548306 7807.515704223753 18.7394834328628 0.27675069324088963
0.862839779378793 12.998400274537241 6814.629888485228 19.607342534757755 0.280699159241614
0.8873182534406355 13.003357423979457 5955.377848658399 20.513178369608493 0.28471634424761894
0.9120755029375819 13.008844553630688 5211.154984655737 21.458785072327693 0.2888052616209478
0.9370962940914195 13.014733564491035 4565.282822580552 22.445646947236636 0.2929658345720916
0.9623792136676196 13.020949222840198 4004.5321668987904 23.47578902417827 0.29720185987942654
0.9878987992966718 13.027332007797478 3516.5356637253794 24.551633797055125 0.30151943904769596
1.0136417926250538 13.033786387046838 3091.89428307585 25.675123500855175 0.30592020330235886
1.039604507112378 13.040246879246215 2721.3760446545184 26.8482194710455 0.3104054134743114
1.065756369707335 13.046574410498074 2398.3656046546207 28.07401841025158 0.31498380409350535
1.0920880339111483 13.05270965918965 2115.744164543431 29.354574233269076 0.31965581350287864
1.1185868854190482 13.058535911591767 1868.6103423997197 30.692644716118597 0.32442614104779643
1.1452167243890474 13.06399591195312 1652.128232797375 32.091627882554725 0.32930283222065143
1.1719796795441655 13.069004159066038 1462.0725588087587 33.55346527655621 0.33428358787778195
1.1988355503207309 13.07346070834381 1295.421432958398 35.082698969818615 0.3393819730262109
1.2257816198448408 13.077330101631485 1149.0773228828539 36.68135168077839 0.3445947460972682
1.2527758996816134 13.080496461253942 1020.0804826219894 38.354476801450176 0.34993635111812876
1.279818706588607 13.082935866317287 906.7205620287289 40.104313108688444 0.35540336316199456
1.3068622018434948 13.084520866923729 806.737033103357 41.936334296677174 0.3610103564099944
1.333899785429031 13.08523531229032 718.6098152404194 43.85401793267 0.36675922660718674
1.3609072191095266 13.08503307461041 640.6332763169249 45.86206183333329 0.3726577802842312
1.3878386419682625 13.083775187980413 571.8050493969336 47.965794259901415 0.3787159481203395
1.4146953870910524 13.081485351245886 510.82793411518145 50.16996491904102 0.38493934704264726
1.4414185140903562 13.078032850780074 456.8794075351934 52.47980633590039 0.3913350153376157
1.4680124748542513 13.073436109309277 409.0055461572596 54.90172776298219 0.39791460959430575
1.4944219019011566 13.06757107620625 366.53105362720135 57.44191843195157 0.4046871897689945
1.5206337885586996 13.060424704705149 328.8340781264149 60.107005626612704 0.4116625258177259
1.5466173617577448 13.051939896346413 295.2907305962059 62.904094116453656 0.41885115615438473
1.5723334816306878 13.042058661563006 265.4639559496944 65.84080936561752 0.4262644508812625
1.5977575267535686 13.030731948579968 238.9222047463472 68.92534490056254 0.4339146803507348
1.6228439252885847 13.017912725611 215.23899951068358 72.1665142673153 0.44181508968507277
1.647596231501024 13.00357322944846 194.09519995450992 75.57380806324201 0.44997997995719613
1.67194548652783 12.9876385452266 175.23247651636555 79.15716150806404 0.4584235645720623
1.6958819530701428 12.970093988486285 158.36332660625067 82.92676860284652 0.4671591269253022
1.7193629050469355 12.950883586013521 143.280476210624 86.8953641035339 0.47620820863600727
1.7423478023087156 12.929944158436967 129.7760998959855 91.07453035589134 0.48558517224832065
1.7648293654251748 12.907297704751302 117.6813492058983 95.47834468811273 0.495311892353616
1.7867548720105129 12.882860072444524 106.82090102157596 100.12048692253174 0.5054059398036691
1.8080942881584072 12.856608518548095 97.08667644416846 105.01747504006866 0.5158929892508922
1.8288042409918253 12.828476493112486 88.32916997924092 110.18584870515075 0.5267955760302632
1.848884148080173 12.798511797382755 80.46447842394385 115.6432359838728 0.538137066426624
1.868261401477363 12.76657334068531 73.3882985315544 121.40984858162085 0.5499468071004207
1.8869408501362273 12.732756720437006 67.00882039737499 127.50710516748076 0.5622545855066476
1.904863357015472 12.696944957355232 61.25689715846666 133.95744423631047 0.575089695811486
1.9220064846149316 12.659129101255877 56.074981135626025 140.78653818427443 0.5884884018001904
1.938320348558118 12.619244636077044 51.391752352660056 148.02207224262582 0.6024890022750848
1.9538178351694433 12.57740145046995 47.163481533376554 155.69256014375273 0.6171273180265224
1.9684352620127263 12.53347646571627 43.34339642672305 163.83162758959685 0.6324508820460285
1.9821511844001298 12.487479182440062 39.87973888808769 172.47303494098333 0.6485012191046471
1.9949414839878292 12.439406079978292 36.74585165796995 181.656090151499 0.6653315659819907
2.006777659168874 12.389248928824241 33.90182514329799 191.42278164246102 0.682996300341256
2.0176267981576452 12.336978382948102 31.329798398782955 201.81913870584594 0.7015546492643083
2.0274631240475682 12.28259627161336 28.990817503382914 212.89511391290478 0.7210693092007969
2.0362749063192846 12.226134283316847 26.869495230226004 224.7061693123037 0.7416105415758201
2.0440213702368775 12.16754322416071 24.942566632168646 237.31347994284422 0.763255529744218
2.050681943691761 12.106840700869526 23.187616175498782 250.7838954066871 0.7860868298568943
2.056255267575354 12.04409889450227 21.59354618897265 265.1905212271947 0.8101926357377486
2.060703687599038 11.979252789600052 20.141685226051393 280.61506729876504 0.8356725573200552
2.06401179840951 11.912360876583298 18.821551856999616 297.14726756257767 0.862633595589714
2.066173646632796 11.843463808497816 17.618853097569417 314.8875008801231 0.8911962620814425
2.0671683150866738 11.772576689129629 16.523897373636817 333.94515490938466 0.9214863799668488
