M[M_sun], R[km], Lambda[1], P_c[MeV/fm^3], rho_c[fm^-3]
0.24162668629717493 15.618656898711224 2160425.4255784233 3.5677272577965504 0.1711233750220791
0.2536419209435643 15.277368772898718 1723245.363672369 3.784801249862113 0.17388794425268408
0.26603765786425404 14.981312520299078 1383103.6499739685 4.011362898104316 0.1766661948285126
0.27881111392366675 14.723613531541371 1116503.1574351443 4.247668865245483 0.1794568258553845
0.29196499846130736 14.498491222906836 905978.5406426972 4.494344029177983 0.1822663980022758
0.30549903730482014 14.30132172867797 738737.4747346445 4.751542212830756 0.1850905826417038
0.31941388240439295 14.128230181586131 605133.1731996142 5.019948623410717 0.18793606279641065
0.3337102409197436 13.976078020204051 497734.4755144416 5.299783271695458 0.1907993824545222
0.3483900828160755 13.842115927858782 411050.63635928056 5.591779434857187 0.1936869327281769
0.3634517316861116 13.724062839440148 340694.45467704907 5.896098495851694 0.19659366781206042
0.3789031207214596 13.620080735366354 283354.5248753828 6.213606935575821 0.1995273190966065
0.39473347562454575 13.528540952716066 236450.0101744866 6.544566263290343 0.20248413794665068
0.4109562564360309 13.447951265224622 197902.5432024138 6.8896706663128136 0.20546769705027498
0.42756323901915666 13.377120082436356 166116.47760479627 7.249628774871378 0.20848113565016785
0.4445557090775158 13.31499207287073 139832.0610488889 7.6247054825496186 0.21152009553787643
0.4619349886612737 13.260633126463645 118005.85669895727 8.015837905515777 0.2145905555023945
0.4796973854642542 13.213220250797258 99836.23404191603 8.423736302267114 0.21769425026454528
0.49785187458335717 13.172050054126837 84662.51005576292 8.848849628102737 0.2208287654917584
0.5163879259511132 13.136464781320152 71956.81582788407 9.29203493520733 0.22399728034677377
0.5353039638992995 13.105892561316358 61293.23995481819 9.754184348770865 0.22720282405489162
0.5546080705824411 13.079874887456477 52314.76174069194 10.236107148213264 0.2304467470570618
0.574288570369086 13.057878200990203 44743.77443594654 10.738285717761569 0.23372589008613484
0.5943425835993277 13.039569418111332 38340.438766206906 11.261942217580458 0.237046159553449
0.6147771549073203 13.024528204352421 32634.452711076345 11.808024497610496 0.2404093065631573
0.6355753996040278 13.012479623108552 28303.547906552594 12.377511168999074 0.24381696335829517
0.6567459258335866 13.003034463185344 24379.52954718022 12.9711066506883 0.24726725620380188
0.6782755633211048 12.995991680006426 21035.94863328398 13.590106687145203 0.25076462522478
0.7001601218456415 12.991073288748126 18178.975958549967 14.235723176225884 0.25431187447399534
0.7223916051048707 12.988006434013206 15734.886836828791 14.909145291378334 0.25791098758894687
0.7449766237980022 12.986650045138049 13639.853740407543 15.61142199214713 0.2615620570643169
0.767892475033473 12.986751302644167 11840.115029692599 16.34378050244263 0.26526659153528426
0.7911354055680473 12.98813191973355 10293.084988328355 17.107854713797106 0.2690294687642949
0.8147054398757015 12.990654038362893 8960.090205816918 17.90509899348038 0.2728531199934523
0.8385843442955885 12.994129559561163 7810.050936443387 18.736900707725752 0.2767388269552228
0.862762774497636 12.998394851104493 6817.401649090553 19.604559533281822 0.2806866736691387
0.8872336372908365 13.003342685076458 5957.647263771667 20.51018169817553 0.28470321236875845
0.9119918190158691 13.008837479381059 5213.484088537179 21.455560420194434 0.2887914545943305
0.9370096505427787 13.014719896897777 4567.433625821498 22.44220774665191 0.2929515500908465
0.9622851430295087 13.020918226313869 4006.3550432355873 23.472092118188318 0.29718684564574355
0.9878067037996622 13.027311295409705 3518.2063755759928 24.547661785912002 0.30150366013302654
1.0135461322964745 13.033766102144726 3093.542469647111 25.670891759035506 0.30590387219568926
1.0395066647557965 13.04022302849528 2722.808489964018 26.843676267973677 0.3103882500711986
1.0656573478509699 13.04655635571643 2399.3244164670714 28.069142480957407 0.31496576591082964
1.0919826711277332 13.052678860974767 2116.652759598417 29.34938285807502 0.31963712773970065
1.1184784132204697 13.058514977803831 1869.5232339075292 30.687075919586267 0.32440649675717964
1.145105919059438 13.063978059780801 1652.9070577564912 32.08569983911767 0.3292824640472905
1.1718657396317218 13.068986834964074 1462.92415828609 33.5471084560962 0.3342621647374161
1.1987183484231614 13.073449454668275 1296.0735116479395 35.075883372067025 0.33935943569215915
1.2256619524905012 13.077316294763015 1149.6392690539133 36.67409708290136 0.3445713438875045
1.252654580736084 13.080485548993462 1020.7262029299594 38.34670883062328 0.3499117684136035
1.2796941438870741 13.082924224911674 907.2202647529436 40.09603385983434 0.3553777499319583
1.3067350344663913 13.084518645714937 807.2187171310198 41.927518638045356 0.360983705338384
1.3337697988304669 13.085232537335315 718.9527648423244 43.84456703450662 0.3667311336502006
1.3607746865425585 13.085038039854934 640.985213706661 45.85199549701982 0.3726285087456401
1.387704506145144 13.083783599998311 572.1194928435702 47.9550694928265 0.37868542197121413
1.4145585151659434 13.081500357160662 511.1091254818175 50.158464131337816 0.3849071205680899
1.441280699987296 13.078052957334492 457.1158601629996 52.467547783343484 0.3913013579451772
1.467873127688695 13.0734647628833 409.2521832995055 54.88865717092607 0.39787942591118536
1.4942812435136286 13.067602978549406 366.75003797676817 57.42797712967241 0.40465037704999535
1.520491261080745 13.060469393376557 329.0298010798759 60.09213015373933 0.41162397333986483
1.546474195120355 13.051989809971833 295.4743618646829 62.88821579012918 0.418810744551506
1.5721889822265394 13.042121820053822 265.6285878159072 65.82385380402067 0.42622205141222275
1.597611469709592 13.030802900755665 239.06226018980036 68.90723149788309 0.4338701540939635
1.6226926589731578 13.017964782943553 215.37483167043646 72.14715561467419 0.4417682866514538
1.6474507002340695 13.003665156273343 194.21651070193158 75.55310930936984 0.44993073811225986
1.6718003144608051 12.98774301784909 175.34519446189478 79.13512772166622 0.4583721600004791
1.6957375754216242 12.970207203740292 158.4575648427296 82.90318483311371 0.4671049314911433
1.7192012167329978 12.950969506059355 143.3768568119218 86.87010896086852 0.4761510181636368
1.7422062660034336 12.930085213063375 129.8660599021782 91.04759332752703 0.4855252472753738
1.7646866381809794 12.90744819384953 117.75320069103438 95.44946630987455 0.4952485267435329
1.7866154839593253 12.883027211481078 106.88955753503147 100.08964205011841 0.5053393779071681
1.8079559366382714 12.856787452729192 97.14702021933296 104.98450374441511 0.5158229746354613
1.8286685797507902 12.828668993504778 88.38792303646638 110.15053738976655 0.5267216855988437
1.8487505078275654 12.79871884351029 80.51515373552814 115.60532843726398 0.5380587625162189
1.8681404752483073 12.766831622913662 73.42818404335827 121.36923668570117 0.5498641361629277
1.8868141476964837 12.732999887906786 67.05253870783402 127.46356093807417 0.562167192585674
1.9047409032100044 12.697201322615413 61.297371463108554 133.9108782455114 0.5749977600870367
1.921886730200901 12.659407994217082 56.11036539782019 140.73652303545887 0.5883909532704977
1.9382051000305123 12.61953586817575 51.42413802652689 147.96830845917995 0.6023855849627117
1.953708551490364 12.577724240974769 47.19610534013035 155.63489585697832 0.6170180384308085
1.9683305535842817 12.533809823726063 43.36633805361455 163.76968912769703 0.6323351436723229
1.9820540461270777 12.487835109114696 39.903469850286136 172.40630085117712 0.6483780019043743
1.9948483029599087 12.43977921116332 36.768653963047576 181.58429427196882 0.6652007887919203
2.006686691089945 12.38962806050229 33.92758618083975 191.34545780297444 0.6828572943476511
2.0175463825501647 12.337392903792773 31.347624768596138 201.73577267025186 0.7014066827745101
2.027390988536084 12.283032446978234 29.008887971368157 212.80534799563185 0.7209122690990521
2.03620956608646 12.226590554115818 26.886848676383682 224.60917277568225 0.7414428807531099
2.0439627375350913 12.168022107303102 24.957067524343636 237.2087803014542 0.763077007237775
2.050632210632854 12.107342530697 23.201928826698193 250.67058848180045 0.7858959447289061
2.0562086474494783 12.044601152294375 21.60543770266208 265.06783077133343 0.8099884716910302
2.0606746277969683 11.979798034415884 20.154232092208265 280.48237915022025 0.8354549178735456
2.0639945345715915 11.912943695931665 18.832523334691366 297.0033115952539 0.8624003611284587
2.0661603440807585 11.84405698183908 17.6286467579269 314.73112130541466 0.8909459291398294
2.067164443937609 11.773193830783017 16.531646333080054 333.7753204718469 0.921218140039037
