M[M_sun], R[km], Lambda[1], P_c[MeV/fm^3], rho_c[fm^-3]
0.24162668629717493 15.618656898711224 2160425.4255784233 3.5677272577965504 0.1711233750220791
0.2536329789842179 15.27756251284007 1723555.1429349706 3.784618582525602 0.1738856673924561
0.26601653383107937 14.981765773800138 1383546.620806944 4.010978910271016 0.17666155456216126
0.27877960510183686 14.724171574314207 1117054.878925254 4.247070581823743 0.17944988666928618
0.2919205431817968 14.499187967027519 906615.5624452841 4.493515767113723 0.18225717511196066
0.3054435345782342 14.30204009955332 739353.1040283733 4.750455867764025 0.18507884804166239
0.3193435979386513 14.129031077597471 605690.2400167763 5.018596210281163 0.18792203098820798
0.33362623583272666 13.976912906911924 498313.42608576524 5.298129207598653 0.19078272877365604
0.3482918309568758 13.842949339732115 411580.9470061399 5.589819607719995 0.1936679708614947
0.3633384682897117 13.724883754111211 341175.7506740268 5.893788902181222 0.1965719756195452
0.3787732267832869 13.620904776856863 283774.0349364158 6.210919651923312 0.1995028143053958
0.39458739066127463 13.529324811468003 236839.52625025038 6.541504097367512 0.20245728688829098
0.4107941932585117 13.4487008843106 198257.12708904452 6.886174538628653 0.20543792255982363
0.4273814514187393 13.377846805322308 166424.91006041644 7.245665909527897 0.2084483518807766
0.44435615279668467 13.31568444883851 140114.60366848233 7.620286848715456 0.21148492037138428
0.4617161467167402 13.261280624433168 118251.45110762118 8.010886478656825 0.21455225221258384
0.4794599208511627 13.213800739884174 100063.93280975046 8.418213509650824 0.21765272658479326
0.4975945359206702 13.172583211475095 84860.57437828019 8.842775846427948 0.22078478871730567
0.5161072594580738 13.136943823895795 72137.7192678973 9.285311933809657 0.2239499499978039
0.5350041691634767 13.1063298690248 61448.865928209794 9.746766589373427 0.22715203814760793
0.554286560796992 13.080252664660861 52451.79238738345 10.227946327460382 0.2303923991743941
0.5739409101396717 13.058228525610723 44864.83955602768 10.72941730102726 0.23366895210360888
0.5939781769707994 13.039886522938087 38447.7900248048 11.252232926203128 0.23698549572522118
0.6143849848266663 13.02479029171072 33007.670648222476 11.79741703226565 0.24034479547569548
0.635159338106615 13.0126601171032 28386.84333757723 12.365944658093365 0.243748477188953
0.6563010534279301 13.003189260184438 24456.322556008967 12.958634205589961 0.2471959688221866
0.6778086082928263 12.99613541527674 21101.32349153886 13.576551323806056 0.25068915259340674
0.6996684581347672 12.991150019669327 18238.52362538366 14.221012288831764 0.25423206719191715
0.721872964707558 12.988070672419049 15787.419410074517 14.893201612214822 0.2578266873471941
0.7444305858859157 12.986669173059152 13685.665275843545 15.594318748127694 0.2614746366259197
0.7673216362708553 12.986738087389522 11882.635187519503 16.325286259433174 0.2651744023723984
0.7905322337019851 12.988094389549937 10260.830917952942 17.087876752146514 0.2689323227018935
0.8140753662813437 12.990564570944704 8992.951495425546 17.883538450461113 0.27275081675847856
0.8379309095223517 12.994005174561487 7840.187302802064 18.713797214188702 0.27663243930213605
0.8620849620324812 12.998267374870853 6843.340650798958 19.57972558534175 0.28057525940668293
0.8865229644994767 13.003178810223657 5981.070065874812 20.483441942007627 0.284586034611166
0.9112525993292655 13.0086497292659 5234.183993328113 21.42678729144493 0.28866825638934884
0.9362450118582819 13.014543395865783 4585.891830457866 22.411521039402984 0.29282409497929607
0.9614816582980528 13.020738328138393 4022.7458330655445 23.439107083151512 0.2970528836176502
0.9869818920999437 13.027098022665992 3532.8185665037577 24.512223341451783 0.3013628800166056
1.0126930386687043 13.03355358204402 3106.652507801843 25.633091691431922 0.30575783619273633
1.0386195544869934 13.039991493605841 2734.657554072172 26.80314406856496 0.3102351267204472
1.0647477871517963 13.046336126142412 2409.876950918419 28.025643335141122 0.3148048436555769
1.0910445569437888 13.052462614477689 2126.120066864661 29.303070825197935 0.31947043285707627
1.1175120574706563 13.058314541477632 1877.8226909124041 30.637398638334936 0.32423125692855803
1.1441154092269454 13.063786982238035 1660.3110504591584 32.03248688216248 0.3290986206611751
1.1708471009104262 13.068805279373027 1469.6238264761867 33.490405069790164 0.334071068479201
1.1976734334870176 13.073275908106163 1302.2977448563183 35.015089816585885 0.3391584078853532
1.2245927092033524 13.077174719676123 1155.0523902331327 36.60938962764924 0.34436260765335996
1.251566185466705 13.08038321563826 1025.5959775719243 38.2773438045171 0.34969203521722475
1.2785769715259019 13.08284154223167 911.6201420708371 40.02219192177812 0.35514930764461
1.305596253654094 13.084467883350234 811.1598177199628 41.848878108204204 0.36074591981164644
1.3326159194952172 13.085250871987316 722.5501534264853 43.76028101295674 0.3664805920046339
1.3595945779494858 13.085066586051461 644.244190643386 45.76222363108939 0.37236746435410056
1.3865062603918554 13.08386303474442 575.015439926782 47.8593722487847 0.3784129018977493
1.4133322875290915 13.081606709222836 513.7406404705507 50.05590714261103 0.38461974458366366
1.4400546561699397 13.078257800905515 459.49063105081456 52.35823714672965 0.3910012318921919
1.4666197905377838 13.073694572574587 411.3839757728126 54.77210945896225 0.3975657004312277
1.4930190995537869 13.067918860553624 368.6918796339061 57.30366978552974 0.404322137174134
1.5192196747569853 13.060853483071357 330.77394176944637 59.9594979907474 0.41128023310579365
1.5451919106473846 13.052440919389442 297.044341865484 62.74664714230611 0.4184504410875898
1.5708999533657337 13.042651556770027 267.04819492959865 65.67268628877706 0.425844038431303
1.5963165396257233 13.03141737106503 240.32849222766552 68.745747347343 0.43347319473305856
1.621412560818858 13.018702805474984 216.51480527307564 71.97457652671152 0.4413510455858906
1.646141661373018 13.004457449137627 195.28573131286788 75.36859076339437 0.44949177286416286
1.670507210634856 12.9886408784523 176.29143620489873 78.93793970985226 0.45791069235610604
1.6944409006912846 12.971203569812086 159.34355675595373 82.69296374744303 0.46662184404853524
1.7179320953333062 12.952120527132843 144.16052167303553 86.64499918941421 0.4756412552874076
1.7409358293748682 12.931326684191463 130.5841018511783 90.80750111121823 0.48499113046885467
1.7634155601960735 12.908773356571661 118.40900389842311 95.19208221218055 0.494683768562116
1.7853635427764754 12.884488422775952 107.49084092380758 99.8147420653829 0.5047461556663071
1.8067110267829822 12.85834760737764 97.68746140503585 104.69026245746635 0.5151974866855267
1.827463194727876 12.830416830074629 88.88131719659008 109.83496490151272 0.5260598800943366
1.8475502382319617 12.800551535866466 80.96845566801808 115.26752837978556 0.5373609841633068
1.8669761105991678 12.768832564372138 73.84085673018174 121.00735401187323 0.5491274756542193
1.8856682972126029 12.735122263908433 67.42567816665984 127.07556696389425 0.5613884917753532
1.9036274588572877 12.699475413317844 61.64459596108784 133.49519146845685 0.574175842298456
1.9208098433118086 12.661836729290751 56.42352757551203 140.2909117577916 0.5875227330441973
1.9371846307539455 12.622193752137424 51.71219396695008 147.48932312708783 0.6014642328454262
1.952733462760951 12.580542301613548 47.45641660880624 155.12116467107015 0.6160444355894182
1.9673926673414568 12.536784115822828 43.60747667706357 163.21653296558432 0.6312993952506156
1.9811757654697957 12.491017261324707 40.124007547664036 171.81185288389884 0.6472804187283911
1.9940243742906802 12.443136017594664 36.97152043172834 180.9447911555909 0.6640359249982252
2.0059054516825294 12.39313226918574 34.11201335754077 190.65675362626064 0.6816192025894083
2.0168187899600567 12.341069729517713 31.520392255078036 200.99329445072334 0.7000888571742842
2.0267286987887023 12.28690910603332 29.167578559596155 212.00457597929503 0.7195093194781711
2.035610514032954 12.230652399554621 27.02982392064031 223.745397794659 0.7399498251348453
2.0434425905567584 12.17230518278388 25.088624864066357 236.2752764736133 0.7614834521715995
2.050190604699631 12.11184401648193 23.324703252365783 249.66098477262312 0.7841939810849465
2.0558323146666724 12.049274117793471 21.71857276904865 263.9754521046143 0.8081706901237466
2.0603727002334757 11.984678156597363 20.25772957994691 279.2990100591068 0.8335105811080281
2.0637842041508927 11.918039582007417 18.927647561680455 295.720821275322 0.8603209355987336
2.06603597534664 11.849360970051322 17.716428457705526 313.33907372353485 0.8887175347559269
2.0671297344498525 11.77870597789048 16.613231230405788 332.26315986754105 0.9188290233046221
