M[M_sun], R[km], Lambda[1], P_c[MeV/fm^3], rho_c[fm^-3]
0.24162668629717493 15.618656898711224 2160425.4255784233 3.5677272577965504 0.1711233750220791
0.2536437498388442 15.277278170023004 1723218.0953264614 3.7848148300714346 0.17388811352344197
0.2660393055323929 14.981290986519866 1383111.2042964355 4.011391446322475 0.17666653981688102
0.2788141096128085 14.723546641286697 1116466.5038148733 4.247713347208282 0.17945734177912007
0.29196750712268354 14.498468752233965 905934.4307242319 4.494405612027738 0.18226708374160044
0.3055041621713946 14.301220384882846 738659.164449618 4.751622987475473 0.1850914551620275
0.3194194582322536 14.128156373451354 605110.5136609384 5.02004918475166 0.18793710615913603
0.3337171771954138 13.975982735680128 497694.5216071927 5.299906267097664 0.19080062081413615
0.34839734317481924 13.842057532006539 411024.1973482522 5.591925171301152 0.19368834276836297
0.3634590624085113 13.72403442158767 340661.63229005825 5.896270247338987 0.19659528093837556
0.37891254765038584 13.620024913728715 283320.59297070844 6.21380678037596 0.19952914144055497
0.39474427805185786 13.528471975557187 236413.16054442702 6.544793993805244 0.2024861348356175
0.4109682514834572 13.447896928125889 197878.14712219546 6.889930678633339 0.20546991142430654
0.427576177682081 13.377074719351496 166086.09158259036 7.249923508713332 0.20848357390770852
0.4445701037807687 13.314947061327091 139818.2721534202 7.625034123200023 0.21152271172876888
0.4619511832251815 13.260590935667084 117988.29697712732 8.016206184937193 0.21459340444146027
0.47971561343772684 13.213163973217526 99820.21898594369 8.424147091992385 0.2176973388290058
0.4978725534625877 13.171988188164446 84651.61721751123 8.849301413405387 0.2208320366103826
0.5164083812362752 13.136419673434192 71943.38414710666 9.292535026960618 0.22400080102389403
0.535326714129504 13.105875378993309 61281.180051561954 9.754736137418076 0.2272066018920492
0.5546328330236706 13.079828158192228 52305.527854164626 10.236714230201597 0.23045078998628066
0.5743138088296603 13.057852283010345 44734.12207866359 10.738945455280978 0.23373012580537056
0.5943688459678172 13.039545491619265 38332.0935343328 11.262664531515414 0.2370506725839858
0.6148062302549501 13.024530627084317 32904.06238649361 11.808813654646162 0.2404141059546136
0.6356093103072076 13.0124421328863 28296.003929083694 12.378371701991203 0.24382205863799566
0.6567775565563919 13.003027619098356 24372.884440707043 12.9720346079596 0.24727256002703785
0.6783098236318312 12.995983815932666 21030.793911777528 13.591115245015322 0.25077024060479197
0.7001962507184823 12.991069038615617 18174.531379595628 14.236817741898143 0.2543178125461876
0.7224298353995308 12.98799864146479 15731.83966374626 14.910331619457356 0.25791726015269045
0.7450165809568894 12.986643286511217 13635.586161121624 15.61269463273111 0.26156856195880634
0.7679356652552028 12.986761034151597 11838.027226435865 16.34515668848599 0.265273451477551
0.7911792866010802 12.98813963938509 10290.092593159525 17.10934135141293 0.26903669777960293
0.8147531055803109 12.990664708441704 8957.787196122226 17.90670344662048 0.27286073300887814
0.8386343821999929 12.994131524760345 7808.67602973147 18.738615860280277 0.27674670719376704
0.8628147530076772 12.998403563645136 6815.590903135569 19.606407684615352 0.28069496515860415
0.8872885513952729 13.003350383093734 5956.045885283177 20.51217174248751 0.2847119330514948
0.9120477008838683 13.008843336710523 5181.320399791051 21.457701860699654 0.2888006236224405
0.9370664433127422 13.014733127760362 4565.902051011228 22.44449166335727 0.2929610361805756
0.9623444451683492 13.020936954667741 4005.200377033413 23.47454717010264 0.29719681634103456
0.987868434654201 13.027326513882596 3517.128170058056 24.550299527494545 0.30151413862813925
1.0136092354761885 13.03377909163617 3092.3786033521747 25.673701980572556 0.30591471738181886
1.039572154843242 13.040239969689763 2721.7825080719826 26.846693321750603 0.3103996479570883
1.0657224536456047 13.046567244259448 2398.725975737892 28.07238048811197 0.3149777447072878
1.0920530948581344 13.05269444746393 2116.1835600041395 29.352830343347023 0.31964953656991313
1.1185500429244928 13.058532268511604 1859.7986009000185 30.69077403827963 0.3244195421105026
1.1451795763295691 13.06398265025588 1652.4230534708327 32.089636522270496 0.3292959901028559
1.1719419163201312 13.068996777272256 1462.3356009335782 33.55132987560842 0.33427639135641884
1.1987969984396365 13.073458476279347 1295.641713312332 35.080409449664785 0.33937440220375253
1.2257411827655327 13.077325194136112 1149.2710518748834 36.67891468538367 0.3445868847273636
1.2527351851354187 13.080491775131236 1020.362882659217 38.35187338072403 0.34992812857614075
1.2797764983892157 13.082931423940243 906.8674355725808 40.101531895824536 0.3553947590185368
1.306819461259058 13.084525273953723 806.8750366349884 41.93337288393415 0.36100140361062016
1.3338555041712963 13.085238316073907 718.746921082448 43.85084311811787 0.36674978941644465
1.3608634792362295 13.085032276775005 640.7409921991208 45.8586802692003 0.37264794715508326
1.3877929416202228 13.083780355491658 571.9147401409982 47.96219150272543 0.3787056935104213
1.4146497703996617 13.081491078017653 510.9183822964764 50.166101463995986 0.38492852121584953
1.4413720543924966 13.07803917807952 456.97454944017034 52.475688316043986 0.39132370879797873
1.4679660208418417 13.073443286181343 409.0989563174503 54.897336944440525 0.39790279030046305
1.494375175853723 13.067581810092713 366.61557014389143 57.43723510389591 0.40467482320264064
1.520585826133861 13.060441820526837 328.9041762742614 60.102008469024575 0.41164957478020764
1.5465687468781186 13.05195706837596 295.3482801612693 62.89876005469611 0.4188375805431351
1.572284780616452 13.042080398418518 265.5163759888544 65.83511341034219 0.42625020744391195
1.5977086956439983 13.03075528570658 238.96539989788909 68.91925997130498 0.4338997224144844
1.6227956931931051 13.01794066488586 215.2813206545104 72.16001099792733 0.4417993668586219
1.6475484336505501 13.003602907334942 194.144027881661 75.56685458708252 0.4499634378021984
1.6718964072485327 12.987673384451519 175.267817226966 79.14975952839252 0.4584062958381728
1.6958339306698031 12.970133125141194 158.39876917441808 82.91884590325282 0.4671409205847105
1.7193147177575743 12.950923991888184 143.31175330947008 86.88687990096003 0.4761889960914846
1.7423001050793454 12.929991133804092 129.80454388108788 91.06548111881789 0.48556504102673664
1.7647808289113542 12.907348299418167 117.70470403152852 95.46864324397895 0.4952906052189593
1.7867089661802518 12.882917882611883 106.85146356338845 100.11012482407574 0.505383578844748
1.8080473765423408 12.856669151290633 97.10369402098307 105.00639855573284 0.5158694683131879
1.8287594879895934 12.828539477284298 88.34915009671096 110.17399922687473 0.5267708019232412
1.848838984112394 12.79858259989219 80.48159319498721 115.63050112091157 0.5381107605942095
1.868227156824153 12.766680806040796 73.39558204208898 121.39620516411948 0.5499190341021426
1.8868983287961496 12.732839008264056 67.02356472187057 127.49247659785308 0.5622252260841283
1.9048224480400344 12.697030399216032 61.2685207153869 133.9418004698881 0.5750588101592219
1.9219661218517454 12.659222972596654 56.086849139617854 140.76973562326216 0.5884556640216474
1.93828216370702 12.619342900611263 51.40485048252229 148.00401026806918 0.6024542591683858
1.9537811425989795 12.577507242760133 47.1735436372501 155.6731877316288 0.6170906053663419
1.968399217571876 12.533589526469934 43.348316494957736 163.8108273470665 0.6324120270201198
1.9821170666635421 12.487598274500819 39.88738256968295 172.45061535531715 0.6484598237910213
1.9949103384627591 12.439531623899086 36.753823186906914 181.6319699518598 0.6652876307039024
2.006748652741243 12.389380454101873 33.908840908501446 191.396804200417 0.6829496003821409
2.0175986293442616 12.337118685554243 31.33377877704098 201.79113124228175 0.7015049387791904
2.027438691968976 12.28274239183459 28.997856415673006 212.86495625025194 0.7210165501742614
2.036252416205538 12.226287197071631 26.87472387578204 224.67358232456118 0.741554214191721
2.044001947855465 12.167704026450783 24.947909997541654 237.27830487874857 0.7631955530286985
2.0506648386280024 12.107009537132942 23.192334117339435 250.7458781440136 0.7860228612842285
2.056241196262012 12.044275074386402 21.597267150554245 265.14930158116726 0.8101240438519479
2.0606928489346816 11.979436478610442 20.145866498655668 280.5704885964196 0.8355994378726065
2.0640037494588066 11.912550999652225 18.82477858820124 297.0989030322542 0.8625552363845795
2.0661695273752483 11.843662950126205 17.622059362091463 314.83496216789734 0.8911121579367385
2.067166928207466 11.772782984659091 16.526575111466034 333.88809550733197 0.9213962591991794
