M[M_sun], R[km], Lambda[1], P_c[MeV/fm^3], rho_c[fm^-3]
0.24162668629717493 15.618656898711224 2160425.4255784233 3.5677272577965504 0.1711233750220791
0.2536448472073691 15.27724889814144 1723189.9017566678 3.7848352158144802 0.1738883676218946
0.2660409459852086 14.981251119221616 1383025.3818390968 4.011434301357442 0.17666705769468727
0.27881676486358165 14.72348821020967 1116336.585377726 4.2477801215261355 0.17945811626058042
0.29197281011209136 14.498371452245767 905849.8221678657 4.494498057980447 0.18226811314873945
0.30550901345042164 14.30117655415556 738616.6546553978 4.751744244195419 0.18509276496602484
0.31942783061595265 14.128059754154656 605062.1763707744 5.020200145594199 0.1879386724361429
0.3337272722071441 13.975864216264473 497633.89976874006 5.300090906635849 0.19080247982791326
0.34840831441439796 13.841965877926297 410968.4703890562 5.592143950685379 0.1936904595190895
0.3634719140258683 13.723923958747344 340632.60274681414 5.896528081969349 0.19659770257578754
0.37892583364070104 13.619953100560542 283255.8501599425 6.214106790623756 0.19953187717277904
0.39476050667770707 13.528394663307619 236386.38505618525 6.545135868333489 0.20248913261338036
0.4109865369046743 13.447810559527364 197835.14178512362 6.890321017583878 0.2054732357146087
0.42759579125631536 13.377027293805744 166062.1465947562 7.250365975218612 0.20848723431971225
0.4445916479081049 13.314886450683822 139782.7536350291 7.625527494467422 0.21152663928129406
0.46197532782244377 13.260530654099112 117960.21069634512 8.016759066893195 0.21459768143037583
0.4797419058145198 13.213115576895085 99790.99324263661 8.424763796208783 0.21770197558257645
0.49789809460256274 13.171961663037756 84629.57981181459 8.84997966611273 0.22083694744977883
0.5164398860868821 13.136365160726868 71927.41152470537 9.29328580485996 0.22400608654711093
0.535359988999722 13.105828221939468 61264.2047305681 9.755564531313347 0.22721227351515064
0.5546678518759289 13.079798868381152 52294.28838123713 10.237625640250238 0.23045685962166237
0.5743526561308011 13.057813271659416 44720.6863593422 10.739935921466143 0.23373648490508736
0.5944113059195648 13.039498981669709 38322.103770183785 11.263748949666107 0.2370574480482153
0.6148494600426967 13.024497500383657 32894.61656862647 11.809998431413618 0.2404213113741161
0.6356561451501185 13.01241516729798 28285.628104150717 12.379663643739526 0.24382970832095338
0.6568279512864912 13.003015397305933 24365.436453790557 12.973427781859689 0.24728052283775293
0.6783609725994584 12.995971345180854 21022.740861895523 13.592629435361866 0.25077867121096564
0.7002520218653902 12.991057932983946 18168.42148136886 14.238461068085076 0.2543267276709543
0.7224874363377498 12.988005620882808 15725.367318922135 14.91211272258806 0.25792667751633436
0.7450771789040868 12.986639081827251 13630.624396393705 15.614605330220781 0.2615783281769578
0.767999055694729 12.986754977613003 11833.475049518924 16.347222856428292 0.26528375080653055
0.7912465673913172 12.98814885348448 10286.281948944792 17.111573360198275 0.26904755128250446
0.8148239916030492 12.990674634127208 8954.230756900353 17.90911235421338 0.2728721631031613
0.8387074297968574 12.994138851892307 7805.579681341513 18.741190981954155 0.2767585385454548
0.8628889460724383 12.998418470422383 6812.118531149965 19.609182504910724 0.28070741402728194
0.8873719362614911 13.00336590608173 5953.63397202657 20.515159617486095 0.28472502638301594
0.9121261372313267 13.008870746181818 5209.32196958215 21.4609170611155 0.28881439017954097
0.9371528797987865 13.014752129250443 4563.798111043236 22.447920795417886 0.2929752788429037
0.9624381313708819 13.02095873105434 4003.419290716121 23.478233269252538 0.2972117866849291
0.9879602637261371 13.027345109946111 3515.470272607864 24.554259945077412 0.3015298714870975
1.0137051276084825 13.03380039350516 3090.853929045984 25.67792138579467 0.30593100087918257
1.0396710616589135 13.040260385348185 2720.5636095168043 26.851223300503882 0.31041676140110697
1.0658240370266507 13.046589086128414 2397.434743391059 28.077242246548582 0.31499573046579943
1.0921577314685376 13.052720689753164 2114.9950919776884 29.358006649847265 0.3196681680950456
1.1186572321311175 13.05855121001642 1867.8170896825497 30.69632669613324 0.32443912947088444
1.1420607621159973 13.061443009861465 1673.9519145885843 32.17808527927201 0.5229587708889667
1.1552202875842859 13.050705211883338 1561.5286971616326 33.98075303964006 0.7656876886386048
1.1617139543318749 13.026401941575896 1489.2692240912208 36.11635379626707 0.9882798474255103
1.163667802334351 12.990172942282884 1439.0077496500487 38.574081001496545 1.192335173917717
