M[M_sun], R[km], Lambda[1], P_c[MeV/fm^3], rho_c[fm^-3]
0.24162668629717493 15.618656898711224 2160425.4255784233 3.5677272577965504 0.1711233750220791
0.2536384821828219 15.27744949453678 1723224.2550295535 3.7847343909011073 0.17388711088798897
0.2660302307756698 14.981476499786059 1383267.328390199 4.011222349797423 0.1766644963851697
0.27879984581659273 14.723810698597658 1116661.4544398852 4.247449875273026 0.17945428590171486
0.29194866496530586 14.4987522706728 906178.0180916525 4.494040853816197 0.18226302207425896
0.3054778746914413 14.301604202954174 738920.6711115837 4.751144561052789 0.18508628724357193
0.3193883447898953 14.128508193456844 605354.050367281 5.019453568904426 0.1879309264148344
0.33367917833576993 13.976347035518687 497950.9508213019 5.299177784802856 0.19079328620619815
0.34835417340963537 13.842366715171401 411236.09043527575 5.591062006801311 0.19367999141437864
0.36340816346476335 13.72440035560514 340874.8883142187 5.895253013122609 0.19658572685934564
0.3788555151517744 13.62038657188011 283516.9038927744 6.212623171007203 0.19951834834827037
0.3946797773608483 13.528842569630436 236606.56518533238 6.543445241240527 0.20247430809770042
0.4108970167108985 13.44824448095431 198032.94943344616 6.8883907515140885 0.20545679675875364
0.42749625913516326 13.377394561173476 166232.75094989277 7.248177962067439 0.20846913344765233
0.4444820672810081 13.315255145850333 139936.20083243054 7.623087784359647 0.21150721762010774
0.4618557362876731 13.260871684948167 116777.36864071233 8.014025113389053 0.2145765320897148
0.4796102404657239 13.213435317576316 99915.69632036742 8.421714286729474 0.2176790475344281
0.497758377702175 13.172236616880182 84737.2945707557 8.846625846872444 0.22081266436550245
0.5162862145721739 13.136633876681739 72024.88016299503 9.289573411110938 0.22397995106367705
0.5351944211158877 13.106047854765357 61351.87076602754 9.751468399750504 0.22718422923026266
0.5544902413337757 13.080020331743263 52367.26852142243 10.233119078882332 0.2304268476809674
0.5741600287921765 13.058000444683215 44785.892279272186 10.735038512386907 0.2337050420217712
0.5942111193802256 13.03967308733998 38378.76832992634 11.258387058108191 0.23702394685273104
0.6146329977401788 13.024630453818192 32948.457459234734 11.804140391807852 0.24038568471938979
0.6354237472056613 13.012543382005655 28332.672373281664 12.373275815405046 0.2437918855153891
0.6565808165546637 13.003092368005792 24408.569008491533 12.966539498059246 0.2472411522322233
0.6781037899008533 12.996041652460649 21060.372487674555 13.585142902588569 0.2507369882022461
0.6999803530066698 12.991105079525886 18200.607778423717 14.230336157634266 0.2542826496352223
0.7222013175706401 12.988024602156461 15754.818475415139 14.903306727946505 0.25788011690321966
0.744775833664818 12.986663007772126 13656.287769301467 15.605158703223458 0.2615300432859428
0.7676836925944485 12.986753310456638 11855.258989967728 16.337007700619115 0.2652328308168714
0.7909162105313118 12.988117840215702 10237.78467715189 17.10053842464375 0.2689938921276455
0.8144773772573588 12.990626601595347 8972.307095051496 17.89720299080609 0.272815654025354
0.8383452152820953 12.994082018155323 7820.970474539407 18.72846000678859 0.2767000463017525
0.8625146058329428 12.998341510404533 6827.1084402413735 19.595464427266254 0.28064586966443
0.8869744611664254 13.003273707996334 5966.506854050055 20.50038843489025 0.28466029677057286
0.9117210810966019 13.008767804807132 5220.72639007619 21.445022252342422 0.28874633321130444
0.936728145095509 13.014656059660675 4574.5070207945 22.43096856139232 0.2929048689138999
0.9619932794432505 13.020840522582132 4012.5073270406233 23.46001093118621 0.2971377803556576
0.9875042920882382 13.027232246579137 3523.4965253301284 24.53468176216524 0.30145209666058725
1.0132345142273693 13.0336961086038 3098.1625821026987 25.657063127771924 0.3058505048443991
1.0391833705123084 13.040142768319923 2726.9957257352676 26.82883004689089 0.31033216372130007
1.0653242778579033 13.046477097666125 2403.152339160985 28.053209213162486 0.3149068218249404
1.0916392406287043 13.052600632479098 2120.1709623474294 29.332418995123025 0.3195760682489384
1.1181235963607759 13.058443191946923 1872.5460534255183 30.66887902600422 0.32434230603593966
1.1447421804161861 13.063901458932405 1655.6169152962054 32.066246955082505 0.3292153761263242
1.1714942555222685 13.068916203226134 1465.3126507597121 33.52633713790972 0.33419216325351514
1.1983411035385931 13.073399164997708 1298.3292904498055 35.05361331056999 0.3392857946362158
1.2252706916524512 13.077265977599582 1151.6294834405446 36.65039287848006 0.34449487779337334
1.2522542458920778 13.080436314682016 1022.5094136732965 38.32129789580362 0.3498312721427256
1.2792848122261604 13.082896218063771 908.818463037048 40.06898240799805 0.35529406177728295
1.3063184300960018 13.084501268545054 808.6628611515819 41.898714908198194 0.3608966272993101
1.3333440059847474 13.085233936927464 720.2247301526855 43.81368826677136 0.36663934598316866
1.3603433973956953 13.08504585861954 642.2105186907091 45.819106362872546 0.372532871611191
1.3872655177694806 13.083818282118159 573.1491454364798 47.92002959012452 0.3785856870969976
1.4141050879485133 13.081530210224933 512.0656429063347 50.120889459478526 0.3848018321967257
1.4408363130696837 13.078135143021614 457.99497696403 52.427497961290776 0.391191396139192
1.4674163249331114 13.073551628058253 410.0378934430431 54.84595496423464 0.39776447925059644
1.4938199032465012 13.067716106315354 367.45229321257733 57.38243095267596 0.4045301100489876
1.520025300058906 13.060610924001725 329.6452153056467 60.04353278514569 0.41149802447136424
1.546005106857494 13.052157615305873 296.0474026867629 62.836342960505355 0.41867872407604056
1.5717174575501358 13.042313127256547 266.142493398892 65.76846264090774 0.42608353899008505
1.5971335849603019 13.031021771526854 239.52699328148833 68.84805881254296 0.4337246961572119
1.6222264098205015 13.018241781620214 215.78254262391425 72.08391601251081 0.4416153935095098
1.646975322563719 13.003954284239473 194.59624817221675 75.48549310383386 0.4497698807616799
1.6713297340860838 12.988072075509644 175.69525613394043 79.06298564146276 0.4582035476102149
1.6952548260228615 12.970561342540712 158.7931945255523 82.82614670483811 0.4669278980967374
1.7187303099547913 12.95137736126603 143.6633702590509 86.78761268325601 0.4759642046837853
1.7417471132368538 12.930551165118791 130.1329767930746 90.95960455197948 0.4853295046372845
1.764227692575459 12.907950663259408 117.99311293033378 95.3551380097564 0.4950415493905878
1.7861581436318013 12.883565463055334 107.11216182034241 99.98889210960792 0.5051219639064589
1.807503470671335 12.857367462565856 97.34128041984579 104.87681006859243 0.5155942868891171
1.8282333658021317 12.82932711613123 88.57194453210853 110.0348752222949 0.5264791237091191
1.848315401813034 12.799400770113161 80.68035031585919 115.48151645491568 0.5378030096849178
1.8677139732941177 12.767566351137486 73.58041607506843 121.23659443934773 0.5495941251573127
1.8863986571436042 12.733792358892149 67.18824370658514 127.3213442560193 0.5618817648395568
1.9043365759387918 12.698046050762223 61.422589486978595 133.75879515346176 0.5746975008419498
1.9214858726642257 12.660279055339032 56.225412452343065 140.5731785823838 0.5880726961591514
1.9378284758564566 12.6205002025959 51.52762785146197 147.7927252063762 0.602047841840132
1.9533481658050234 12.578744529927254 47.28935963525516 155.44657805504042 0.6166611573452585
1.9679865301572694 12.53489453893064 43.454393169249954 163.56690507111372 0.631955443904085
1.9817293447332267 12.48898599728891 39.98509409696336 172.18837312413905 0.6479756221841233
1.9945415228408563 12.440992779512472 36.842810681846395 181.3498420304415 0.6647737307831139
2.0064006693038094 12.39091220028578 33.99426067545621 191.09295975635123 0.6824033755809779
2.017289118302539 12.338764931872538 31.410610126430065 201.46355073463386 0.7009235156912679
2.0271463572566737 12.284447654062483 29.06758485087661 212.51207940832424 0.7203989757959739
2.035980602914038 12.22804845918325 26.938599497175336 224.29245779502443 0.7408954313691285
2.0437724849083008 12.169591576462539 25.00476031024263 236.86692166150317 0.7624941068529889
2.0504756055359765 12.10900521705859 23.24624584625055 250.3003770572449 0.7852718519492892
2.056073323006957 12.046314955128407 21.646920396789362 264.66725203715674 0.8093218854042262
2.060565554321074 11.98158851794914 20.19261848487527 280.0484657686287 0.8347420539651847
2.06391805741854 11.914812032736176 18.866825039506903 296.5333285358696 0.8616389043601677
2.066114940821688 11.845999678408498 17.660434922453742 314.22059384552136 0.8901286750895634
2.0671519716131836 11.775215448656022 16.56234884741181 333.2208842711019 0.9203424523480115
