M[M_sun], R[km], Lambda[1], P_c[MeV/fm^3], rho_c[fm^-3]
0.24162668629717493 15.618656898711224 2160425.4255784233 3.5677272577965504 0.1711233750220791
0.25364487059907187 15.2772605629212 1723005.7692562123 3.7848503289010313 0.17388855599922767
0.2660428288499037 14.981203936338765 1382990.4187474507 4.01146607239276 0.1766674416288991
0.2788198914305355 14.723434687918486 1116362.5184337758 4.247829625694035 0.17945869043432686
0.2919773117418528 14.498278717936023 905755.4053317521 4.494566594639118 0.18226887632034028
0.3055137186439812 14.301092232825068 738584.7445835223 4.751834140864408 0.18509373602162027
0.31943244334303883 14.128003297187915 605029.0136363779 5.020312064821438 0.18793983364132236
0.33373420019674793 13.975824712009615 497573.25683640456 5.3002277953948065 0.19080385807057643
0.3484164440988407 13.841897228561209 410925.8879591329 5.592306151108917 0.19369202885280704
0.36348231171834877 13.723834726262345 340599.60946703993 5.896719238642721 0.19659949795971693
0.3789373675438141 13.619905315162429 279319.77414717677 6.21432921732139 0.19953390543644228
0.3947723237605768 13.528349557709838 236347.7089258393 6.545389334473318 0.20249135516901068
0.4110000569999478 13.447750901736157 197808.66140925654 6.890610417002007 0.20547570036149523
0.4276101777550241 13.37695627594291 166026.7784986928 7.2506940242089115 0.20848994818493724
0.44460943058145064 13.31481005845818 139752.76614123053 7.625893286662557 0.21152955122237097
0.46199095178864 13.260467723702469 117942.09166308514 8.017168983485176 0.2146008524666181
0.47976116235388755 13.213086804313107 99777.5014720573 8.425221034388489 0.21770541337448057
0.49792117535457636 13.171899570757652 84608.44356513441 8.850482540240302 0.22084058847332402
0.5164627442452607 13.136328068712189 71915.48917606093 9.29384245419092 0.22401000539310392
0.535384575857611 13.105774162911871 60664.50200617939 9.756178730941508 0.22721647865091985
0.5546951940535527 13.079760226840033 52281.81750380508 10.238295524955898 0.2304612844098939
0.5743810354448678 13.057786903893108 44711.143225899046 10.740670294717244 0.23374119980883978
0.5944414865403886 13.039500913626911 38312.17968043977 11.264552987331426 0.2370624716900983
0.6148817413187792 13.024466253833172 32887.238217380305 11.810876884476833 0.24042665383440703
0.6356898998032912 13.012402677484932 28047.34342624973 12.380621559633582 0.2438353802120423
0.6568641782355275 13.002988799819821 24359.58465272382 12.974460761609876 0.2472864269264117
0.6784000326993513 12.995956774959234 21018.05452534768 13.593752149922386 0.2507849221848454
0.7002921308944762 12.991039064668708 18163.56348273378 14.239679538710297 0.2543333379335636
0.7225310652164543 12.987999394108247 15720.658451167874 14.913433357469462 0.2579336602107694
0.7451223434758806 12.98665054219512 13626.872092517871 15.616022061959066 0.26158556956984863
0.7680471393825461 12.986755345905943 11829.626658531912 16.348754873902077 0.26529138752939413
0.7912968714756531 12.988144156512396 10284.416841958973 17.113228354170822 0.269055598957765
0.8148734095762136 12.990677006492552 8951.014373620917 17.91089852541444 0.27288063835779297
0.8387604894146297 12.994144397500135 7803.311617144451 18.743100407281396 0.27676731136687027
0.8629461895472195 12.998419514576605 6810.063544729435 19.611240016191918 0.2807166447827962
0.8874308210375558 13.003376784472515 5951.674760359032 20.517375119953783 0.28473473505834845
0.9121914947606226 13.008875043906055 5208.048916135394 21.46330113839366 0.2888245981080483
0.9372159552173212 13.014769709240564 4562.806977419278 22.45046351512955 0.2929858398529809
0.9625041231809135 13.020974808405532 4002.0264048691356 23.480966547107723 0.297222887338435
0.988027878182735 13.02736690084964 3514.2847152634313 24.557196649652493 0.30154153762025515
1.0137756504238715 13.033825246553096 3090.197911307434 25.68105014793537 0.3059430753748491
1.0397438133760948 13.040280929090166 2719.6509764665775 26.854582377993427 0.31042945139099487
1.0658983159942346 13.046609847361346 2396.6829868955783 28.08084736720085 0.31500906737471873
1.092236278931969 13.052734659139345 2114.359056985019 29.36184503449164 0.3196819839229852
1.1187375307431329 13.058572253712521 1867.0915143312855 30.700444181263705 0.3244536541664886
1.1453724845517963 13.064028700742949 1650.800734473891 32.09993055275426 0.3293313593776769
1.1721403494290954 13.069031778241781 1461.1041354818747 33.56236855688825 0.3343135928504675
1.1989993855798156 13.073492384585348 1294.4774662188145 35.092244889847095 0.33941353879584035
1.2259494445699206 13.077349768104481 1148.1918642952082 36.69151253537472 0.34462752344132946
1.252948296483313 13.080511278743645 1019.4037850641118 38.36529383277195 0.3499704129127696
1.2799947788990225 13.082949781833232 906.0393712770284 40.11590928475415 0.3554392378567097
1.3070473397751032 13.084553205898768 806.1766525701247 41.948681875907354 0.36104768501265727
1.3340819987380448 13.085236968594954 718.0163542597427 43.867255376367204 0.3667985751357566
1.3610921754336949 13.085028408823401 640.1335621727003 45.876161400517155 0.37269877991032047
1.3880334613919667 13.083778243092972 571.3211287493622 47.98081618450771 0.3787587053669518
1.4148792375685884 13.081449742262873 510.4196930837852 50.18607395180675 0.38498448632770893
1.4416119530353928 13.078007227466317 456.51943901049526 52.496976900086715 0.3913821592736169
1.4682078652539592 13.073400207401678 408.6757254405874 54.9200359018264 0.3979638918114274
1.4946197719084364 13.067520735425301 366.23193980146664 57.46144634897639 0.4047387542288763
1.520832836451513 13.060366393228609 328.5757258269588 60.127842237242085 0.4117165276620254
1.5468178774035273 13.051868008141662 295.05038065679497 62.92633565467676 0.4189077626374432
1.5725362398349827 13.041975870370129 265.2478413793202 65.8645600518309 0.42632384239590077
1.5979493431278022 13.030629237049663 238.71270493777862 68.95071767746897 0.43397705155726796
1.6230584721222752 13.017811430138895 215.0507726063253 72.19363161159987 0.44188065075482985
1.6478007755696604 13.003447778130056 193.9262900130447 75.60280288170789 0.4500489579431981
1.672148561166923 12.98750071395356 175.08929503782258 79.1880266930217 0.4584955726954479
1.6960851342572072 12.96993621786216 158.22670558788698 82.95980535528355 0.46723504528618387
1.7195654007744405 12.95070796267168 143.1567723059787 86.93074252342025 0.4762883233505361
1.742546728461286 12.92975609841968 129.6741803997066 91.11226516789827 0.4856691183153511
1.7650255004644686 12.907088744583948 117.56909923675013 95.51879948474634 0.4954006592105473
1.7869376062189417 12.882604851659808 106.73169219911681 100.16369693139754 0.5054991851281884
1.8082871462276322 12.856359466587662 97.00162149234153 105.06366437238411 0.5159910723948807
1.8289910160444067 12.828200162193742 88.25422969942875 110.23526181466103 0.5268988856979785
1.8490710963281143 12.798218174439077 80.39841542392176 115.69634166895948 0.53824676444665
1.8684421748523847 12.766259229560829 73.32113079508954 121.46674347987957 0.5500626242636213
1.8871183393034958 12.732418185629683 66.94893540625962 127.56791095820408 0.5623763126147275
1.905035915505744 12.696582536400255 61.20017406101867 134.02268187000553 0.5752184951565055
1.9221734926358645 12.658741826783642 56.02649170669924 140.85660883100607 0.5886249260665438
1.9384821647244461 12.618839745191458 51.348934633635096 148.09739561576114 0.6026338905308821
1.9539713616862577 12.576963514632551 47.12349891505093 155.7733490671872 0.6172804211235161
1.9685797651300894 12.533009200745477 43.30285497697217 163.91837175077586 0.6326129208600052
1.9822899734246697 12.486986699279786 39.845463025997134 172.5665332424344 0.6486738534953836
1.995070964757859 12.438881883458663 36.71447817829205 181.75668159885026 0.6655147946981205
2.00690037574809 12.388697250533927 33.87504917851168 191.53111961836805 0.6831910608198627
2.0177391830513933 12.336397578978895 31.301493662266793 201.9359439774749 0.7017619670995597
2.0275675554160633 12.281990263859829 28.96808412724259 213.02088779421103 0.7212893430813299
2.0363684993485687 12.225494230073295 26.847770551261963 224.8420762625328 0.7418454599747767
2.0441023242495158 12.166872905594802 24.92214086608267 237.46018221100996 0.7635056705877404
2.0507515577918656 12.106137897442965 23.169269655911826 250.9424531467351 0.7863536221402603
2.0563141807383185 12.043362006682353 21.576858854688332 265.362264044115 0.8104781498609832
2.060749603749863 11.978484624247999 20.126106944432465 280.8009949396202 0.8359775219253369
2.0640433431266247 11.91155893021436 18.80704620360035 297.34898747883153 0.8629604179984448
2.066189787966449 11.842626447900772 17.606208857813893 315.1066333345301 0.8915470500409115
2.0671760899086964 11.771714086176472 16.511890603313095 334.1831455571619 0.9218622671844541
