M[M_sun], R[km], Lambda[1], P_c[MeV/fm^3], rho_c[fm^-3]
0.24162668629717493 15.618656898711224 2160425.4255784233 3.5677272577965504 0.1711233750220791
0.2536439922856062 15.277302251711356 1723150.6614265016 3.784820402241363 0.17388818297785202
0.26603996001718827 14.98127027989864 1383001.8309332288 4.011403160140018 0.176666681371453
0.27881509781879793 14.723546639688127 1116425.5547512695 4.2477315989744655 0.179457553472103
0.29196998893956805 14.498410181308975 905860.4775468713 4.494430880687274 0.18226736511398892
0.30550464684043827 14.301238339218836 738691.863516522 4.751656131021099 0.18509181317557566
0.3194216947565091 14.128135439817239 605120.5452539677 5.020090447331046 0.18793753427432305
0.33371934464878555 13.97594665186896 497661.74877362547 5.299956735045425 0.19080112894262863
0.3484003401128582 13.842032175460808 411008.8291494329 5.591984970627144 0.1936889213432922
0.3634621876099188 13.724005855490592 340650.10557723575 5.896340721521184 0.19659594284680867
0.3789162188606336 13.620008447903876 283303.065257944 6.213888782253834 0.19952988919894452
0.39474846554022763 13.528462223920975 233309.6782056473 6.544887438243731 0.2024869542171058
0.4109731481898329 13.447874761653118 197862.77867436287 6.890037369572325 0.20547082004911404
0.42758134682341065 13.377082490396383 166086.07885373858 7.250044447327238 0.20848457440186746
0.44457625441401566 13.314935861724276 139807.86913911134 7.625168975230695 0.21152378523764262
0.46195738686423804 13.260573141824231 117983.07495843663 8.016357302524131 0.21459457345816857
0.47972215769495674 13.21315569461962 99815.95056006919 8.424315653525609 0.21769860617609094
0.49787968019431394 13.171984470212358 84646.9453728714 8.849486797375556 0.22083337886953508
0.5164169439055254 13.136408622049842 71939.24214398999 9.292740233453399 0.22400224569039634
0.5353358073751009 13.105844594101649 61276.54800883624 9.754962557783166 0.22720815208571987
0.5546414359336583 13.079834922573658 52300.42565559435 10.236963340332744 0.2304524489625759
0.5743248124568348 13.057839957944065 44730.462715604124 10.739216172796962 0.23373186389568096
0.5943812473272598 13.039540888150498 38328.473765420604 11.262960927606489 0.23705252447212652
0.6148181515168258 13.024503740064251 32902.58257258403 11.809137480272902 0.2404160753547153
0.6356205573143934 13.012468810565752 28292.81029334763 12.378724817351976 0.243824149460249
0.6567922124345831 13.00301454372557 24371.471911359684 12.972415391493191 0.24727473642956824
0.6783243645258191 12.995976702150784 21028.145197829766 13.591529103916182 0.2507725448602725
0.7002106168339187 12.991056518932808 18172.738816333447 14.23726689520231 0.2543202492247837
0.7224456466525677 12.988009951072657 15730.062900237814 14.910818428777842 0.25791983409707203
0.7450336225775088 12.9866445979006 13634.328256160621 15.613216861651487 0.26157123124663917
0.7679534711736895 12.986755875065489 11836.60755233617 16.345721409045566 0.2652762664679037
0.7911974310349384 12.988132023301052 10289.063665514 17.109951397816843 0.2690396642286861
0.8147724884965479 12.990663654048525 8956.587943662626 17.90736184097765 0.27286385704302546
0.8386542295898008 12.994131668003886 7807.618864680053 18.73931968235906 0.27674994089205174
0.8628351780747443 12.99839533061674 6814.790237891007 19.6071660857554 0.28069836762622097
0.8873149293435758 13.003353771901157 5955.570221656946 20.51298837283736 0.2847155116523084
0.9120702534977044 13.008845407702188 5211.250936753304 21.458580620360436 0.28880438621683063
0.937090847988891 13.014736694537188 4565.529131202424 22.445428891755622 0.29296492889376546
0.9623689481360552 13.020936437541613 4004.6063016728294 23.475554628687775 0.29720090792969395
0.9878930026463987 13.027328812135247 3516.7084556590908 24.551381958245763 0.30151843861165983
1.0136355879984769 13.033785951187529 3075.3559268798404 25.674855193573848 0.30591916785288714
1.0395991755844942 13.040244051037236 2721.5495556741685 26.847931415116957 0.31040432525088346
1.0657499528082075 13.046569515352472 2398.3498810067363 28.073709257259445 0.3149826604021574
1.0920817469666817 13.052696377414573 2115.895106727963 29.354245078921622 0.3196546287493296
1.1185788351269692 13.058542616707811 1868.6073777106897 30.692291630572484 0.3244248955156532
1.1452098454880855 13.06399769344739 1652.1561426744652 32.091252018224104 0.3293015407878325
1.1719727340292603 13.069002100616192 1462.0959139368504 33.55306222451742 0.3342822295508548
1.1988280509754197 13.073466308058462 1295.5280626853373 35.082266827710356 0.3393805440494129
1.2257737331096552 13.077327352776855 1149.1205702037732 36.680891702662024 0.34459326227906784
1.2527700296834108 13.080492668958064 1020.207330423887 38.353987120585394 0.34993480916002956
1.2798113095393906 13.08293828512885 906.7371388379639 40.10378815924102 0.3554017391437785
1.3068547437994507 13.08452374389154 806.7494629005589 41.93577533432631 0.3610086665821253
1.3338918773952009 13.085234573385778 718.6329696762422 43.853418690413555 0.36675744534929533
1.360899222739796 13.085034484759975 640.6576222335468 45.86142356680233 0.3726559242918611
1.3878301622979217 13.083775691473084 571.8254270493997 47.965114242827504 0.37871401257223286
1.4146868063926707 13.081485050463417 510.86475094689894 50.169235694691544 0.38493730367565787
1.4414103326342729 13.078033330998487 456.8922000001039 52.47902906191674 0.391332881234476
1.4680042817572605 13.073435416274341 409.0336783832879 54.900898997624296 0.39791237870701246
1.4944129369985517 13.06757275025001 366.53892437956694 57.441034454691156 0.40468485558199835
1.5206247908716852 13.060429382545305 328.8521559057072 60.10606241317229 0.4116600813095352
1.5466082119309401 13.051942010676234 295.30548006494723 62.903087311354575 0.41884859375536304
1.572324077274622 13.04206279107629 265.4761224539476 65.83973425196083 0.42626176242721514
1.5977481947754828 13.030737456978288 238.93045545130494 68.92419636672993 0.43391185703182306
1.6228349519089595 13.017917947495068 215.25144646066542 72.16528677024121 0.4418121219895471
1.647587567980035 13.003579196272126 194.10185315495653 75.57249558786602 0.4499768576093801
1.6719368055688413 12.987645944769197 175.24124683158888 79.15576437591639 0.4584203050787461
1.695873454592951 12.970101683650654 158.3710406214753 82.92527318250667 0.46715569045371663
1.7193537285337768 12.950890410307153 143.28385081373517 86.8937626968654 0.4762045822378102
1.742339455340237 12.929951940096775 129.78344901342598 91.07282229632476 0.48558137244449917
1.7648197385081326 12.907305830511397 117.68547568032646 95.47651352104842 0.4953078743641972
1.7867470326261239 12.882871702802811 106.8254603008861 100.11853105351281 0.5054017191231792
1.8080866960705595 12.856619913992345 97.08750155807064 105.01538432678734 0.515888549616857
1.8287956324226915 12.828488241422608 88.33628447174294 110.18361208479526 0.5267908998520582
1.8488757532071698 12.79852470133032 80.46802774030387 115.64083224152964 0.5381321011244108
1.8682619119400747 12.766620161900676 73.38485774906373 121.40727334379272 0.549941564859922
1.8869321517817015 12.732772695100945 67.01277096826647 127.50434397557986 0.5622490438165344
1.9048554985382602 12.696960791828836 61.25842855570072 133.95449141918058 0.5750838660336299
1.9219989715008758 12.65914694951609 56.0775640616346 140.78336663618336 0.5884822224184302
1.938312971526764 12.619274100524189 51.39360388995993 148.01866297058737 0.602482444370697
1.9538110057078875 12.5774220623504 47.164626204023996 155.68890351649011 0.6171203883518263
1.9684286865794016 12.53349758946684 43.3401955553019 163.82770144782504 0.6324435479805702
1.9821447199725946 12.487501005250902 39.881767341116145 172.4688031341672 0.6484934055360573
1.9949362200878618 12.439429527643185 36.747354773225496 181.65153733883682 0.6653232729705982
2.006772605173217 12.38927377342119 33.905339453804665 191.41787825827632 0.6829874854687
2.0176215790532948 12.337005059740994 31.329236879384407 201.81385213572875 0.7015452661238275
2.0274607105973605 12.282622492306245 28.993428623011187 212.8894214718463 0.721059350615733
2.036271480371231 12.22616282868639 26.87127686331249 224.70001831108576 0.7415999094237803
2.0440176932042564 12.167572977374482 24.943394919166327 237.30684041500123 0.7632442087393282
2.050678296196297 12.106872425479947 23.187841672137072 250.77671938279968 0.786074755341971
2.0562542013353653 12.044131219579382 21.594866269255142 265.18274071646454 0.8101796885158554
2.0607025333631195 11.979286920052667 20.1430953003786 280.60665272710605 0.83565875546406
2.064010483753319 11.912393966446334 18.82226269705807 297.13813836950095 0.8626188046611507
2.066172118660181 11.843501340302645 17.61974481683339 314.8775837571083 0.8911803867180438
2.067167997505154 11.772616130859811 16.524508220842115 333.9343844472159 0.9214693688821917
