M[M_sun], R[km], Lambda[1], P_c[MeV/fm^3], rho_c[fm^-3]
0.24162668629717493 15.618656898711224 2160425.4255784233 3.5677272577965504 0.1711233750220791
0.2536450244786863 15.277268758706372 1723267.4521657957 3.7848390932202314 0.17388841595188678
0.26604181887773404 14.9812477371038 1382983.895214298 4.011442452500838 0.17666715619644474
0.2788179274774768 14.723465565127906 1116491.347601373 4.247792822237528 0.17945826356969302
0.29197381660657235 14.498341509646233 888576.1747492859 4.49451564160286 0.18226830894645596
0.3055143074534151 14.301058457011168 738549.4416438488 4.751767307851228 0.1850930140975252
0.31942823172511303 14.12807556398332 605037.2227968333 5.020228859245745 0.18793897035136015
0.333725990590413 13.975906671063024 497636.1294867027 5.300126026324561 0.19080283342490448
0.34841041300080816 13.841948047121955 410957.77306389686 5.59218556416789 0.19369086214098027
0.36347448091610507 13.723899612351536 340625.3353068301 5.896577124255908 0.19659816319132137
0.37892868004882757 13.61995452527083 283267.9647079501 6.214163855297013 0.1995323975338888
0.3947637143136714 13.528368065763146 236374.93679297084 6.54520089621679 0.20248970282006853
0.41099005739545275 13.447797088418094 197834.91648826137 6.890395264173696 0.20547386802972398
0.4276001031551454 13.376978818627872 166045.07412251638 7.250450137356411 0.20848793057150936
0.4445970481973674 13.314852848857507 139773.9477708463 7.625621339603308 0.21152738634891796
0.46198001565197166 13.26053351007272 117959.9831063815 8.016864232089993 0.21459849496819547
0.4797467375725342 13.213097555970723 99789.80262476098 8.42488110167257 0.2177028575556741
0.4979057606192964 13.171930939494565 84625.64013289465 8.850108679374028 0.22083788156091375
0.5164452930410094 13.136362690906303 71924.78178744693 9.293428613990779 0.224007091932295
0.5353668214520297 13.105796654810343 61262.51460653257 9.755722104768806 0.22721335234643522
0.5546745577086877 13.079791313075239 52293.150618491825 10.23779802156755 0.23045800151609283
0.5743599435363008 13.057819006693169 44717.34576834565 10.740124324947386 0.23373769451379703
0.5944190047655731 13.039512918790791 38319.97249076954 11.263955225191356 0.23705873686142986
0.6148585383160228 13.024482930821172 32893.070726731145 11.810223797781035 0.2404226819776455
0.6356646231768451 13.012433673650552 28283.987947747748 12.379909395794426 0.24383116343710598
0.656837271849896 13.002999025406611 24363.735768507442 12.973692791055162 0.2472820375216421
0.6783713839431279 12.995983850463801 21021.656846375878 13.592917465365502 0.25078027488485805
0.7002620025784164 12.991057035735667 18166.800713067132 14.238773663552863 0.25432842351662327
0.7224980233897562 12.98800415348953 15724.210513066873 14.912451527434982 0.2579284689052735
0.7450886180451312 12.986652893368348 13629.476182659917 15.614968787894908 0.26158018593149696
0.7680113263841257 12.986753528514525 11832.484974869105 16.34761588957266 0.26528570997817913
0.7912585302154737 12.988153603811002 10286.550372595684 17.111997941738814 0.2690496158787607
0.814836715577011 12.990672884022764 8953.125949252322 17.909570587894052 0.2728743373892108
0.8387212773810568 12.994143667364245 7805.01942064822 18.741680835183757 0.27676078916758795
0.8629043892002749 12.998407785403936 6811.558254289705 19.609710347890854 0.28070978212584063
0.8873882472216211 13.003363246104117 5953.184404688536 20.515727991203686 0.2847275170847742
0.9121465785626659 13.008856676079986 5209.339958133914 21.461528680579004 0.28881700895696666
0.9371689232977554 13.014759386186997 4563.656147296846 22.448573112611353 0.29297798819715226
0.9624540940941232 13.020968681502405 4002.9826806426645 23.478934471549632 0.2972146344758051
0.9879786025405655 13.027347881711192 3515.219222220114 24.555013333622522 0.3015328643421369
1.0137223143029614 13.033807484549317 3090.6137172469053 25.678724044014444 0.30593409849183595
1.0396889864904104 13.04027109789895 2720.3265830278224 26.852085042635146 0.3104200169077054
1.0658430257241804 13.046593840243553 2397.238274133861 28.078167107182193 0.3149991519274434
1.0921774861518159 13.052724187565918 2114.8132803803646 29.358991350724075 0.3196717124135927
1.1186799546696014 13.058551544894295 1867.6429101850256 30.69738299555654 0.32444285563554665
1.1453114803355866 13.064016331806428 1651.2748702149656 32.09667185798181 0.32932016282340726
1.172077222082745 13.069017632064998 1461.406077909124 33.55887411958036 0.3343018162364484
1.198934868441671 13.073484790524066 1294.8494109612843 35.08849821226256 0.33940114954879486
1.2258835778374002 13.077345005922064 1148.5521156530772 36.68752449222766 0.34461465863147284
1.2528815083506921 13.080507425896668 1019.7113265258577 38.361048235494316 0.34995704393395305
1.2799256075971959 13.082942481894166 906.2995895184999 40.11135786507106 0.35542515728474133
1.3069703019201577 13.084529799560679 806.3848079715725 41.94383552300115 0.3610330337536026
1.334010885221482 13.08523845806505 718.2914790819284 43.862059739944215 0.3667831310173222
1.3610204677068096 13.085029114437656 640.3252689209505 45.87062736963214 0.3726826877002481
1.3879537259715824 13.08376903741418 571.5286370212787 47.974920115369926 0.3787419232508931
1.414804125010269 13.081458319288197 510.58702421670426 50.179751173830645 0.3849667692070354
1.4415361436489191 13.078016124601712 456.6693860861758 52.49023745295863 0.3913636552768558
1.4681318438764421 13.073411895183058 408.8187014094221 54.91284993569311 0.3979445484829644
1.4945431391568669 13.06753881677088 366.3591779701607 57.45378159569752 0.4047185150573123
1.5207547077340107 13.06038813955763 328.6865008855929 60.11966379383306 0.4116953317470351
1.546738813695539 13.051897704510647 295.1468832087891 62.917605745139106 0.4188855443236113
1.5724559549675983 13.042009153370003 265.3291145950946 65.8552377649637 0.4263005308699953
1.59786981827384 13.030667446460827 238.79392791232408 68.94075867795925 0.43395257040498514
1.6229687812648375 13.017845238538616 215.13654737428922 72.18298782136134 0.4418549174725812
1.64772057022953 13.003496691484603 193.98754619963432 75.5914221280603 0.4500218833999752
1.6720687673436712 12.987556724733022 175.14149457588755 79.17591176683868 0.4584673087112667
1.696005340361264 12.969996032978376 158.28749000508657 82.94683801857951 0.467205246384205
1.7194856215035135 12.950776825438313 143.20671639482754 86.91685600228618 0.47625687721246585
1.7424660165994266 12.929823975819325 129.70995113081258 91.09745368297827 0.4856361682133157
1.7649488615050777 12.90716903765763 117.61384285295374 95.50292030359189 0.4953658167414456
1.786875060012362 12.88272756867124 106.76665811128716 100.1467362260631 0.505462584661896
1.8082115631380213 12.856456559567912 97.03626443478369 105.04553416551073 0.5159525728625827
1.8289251902401968 12.82832232625115 88.28615187761264 110.21586614264238 0.5268583345071868
1.8489973915071 12.798330909071668 80.42416256308634 115.67549649532008 0.5382037055110274
1.868370690635918 12.76638403773082 73.34743902614062 121.44441086893873 0.5500171632517346
1.8870465184443068 12.732553574808872 66.97114137839137 127.54405042377077 0.5623285576441872
1.904968858556654 12.696724358966254 61.22613591137597 133.99707434133572 0.5751679379438441
1.9221082382695267 12.65889402389313 56.0443922641835 140.82910409761595 0.5885713363863784
1.9384182817678834 12.618992788921197 51.36421276092444 148.0678289072675 0.6025770174960591
1.9539115724552267 12.577135463269407 47.139277041304254 155.74163683610735 0.6172203232711806
1.968523834179578 12.53319566418857 43.318760759658716 163.88432175547217 0.6325493151858027
1.9822352932672724 12.487181217822496 39.85798877942068 172.52983184287956 0.6486060883739537
1.995019934987255 12.439089097178323 36.727184099593956 181.71719570889505 0.6654428706020642
2.006852020678515 12.388914461342267 33.88507560587596 191.48859272718036 0.6831146097175412
2.017694377771665 12.336625836426233 31.312597237533303 201.89009311765318 0.7016805863461906
2.0275271663403927 12.282230285984118 28.97682044486152 212.97151615777582 0.7212029703571977
2.0363313483849477 12.225744651742138 26.856151684083972 224.78872668169515 0.7417532439542255
2.044037443435628 12.167291583445481 24.934982655991913 237.41980912030112 0.9611353375144056
