M[M_sun], R[km], Lambda[1], P_c[MeV/fm^3], rho_c[fm^-3]
0.24162668629717493 15.618656898711224 2160425.4255784233 3.5677272577965504 0.1711233750220791
0.2536458469618912 15.27723213333061 1723149.9427821378 3.7848661578755944 0.17388875329975945
0.26604544344975545 14.98115091672522 1382830.6032692571 4.011499348575265 0.17666784375192643
0.2788230590554458 14.723375796312622 1116273.6767506697 4.247881475403598 0.17945929181282197
0.29198024754080654 14.498250889457427 905676.3398051112 4.494638379003917 0.1822696756559026
0.3055195583336515 14.30106674449728 738494.0523717748 4.751928297935001 0.18509475309768414
0.31943837886058424 14.127953760625628 604949.6076955026 5.020429288761538 0.1879410498849452
0.3337402050876154 13.975739821078655 497561.34960704076 5.300371173138606 0.1908053016465498
0.34842495374555144 13.841825427323666 410881.384068097 5.59247604122977 0.19369367258646145
0.36349097225585697 13.723777429787273 340536.1307192258 5.896919458845018 0.19660137847022802
0.3789476605887205 13.619823828495665 283210.4906269265 6.214562191408785 0.19953602987960026
0.394784947686508 13.528260350369427 236315.24606049745 6.545654821150869 0.20249368312851787
0.41101427231170073 13.447703646160258 197784.2943676537 6.890913542635962 0.20547828190659573
0.42762680550677756 13.37687422271953 166010.08066878415 7.251037634317311 0.2084927907833043
0.4446256228855325 13.314788833559582 139739.5591927683 7.6262764320879874 0.2115326013063191
0.4620106656219243 13.260402562585037 117919.95957798148 8.01759834872901 0.21460417395390607
0.4797820627350623 13.213009842403022 99758.96929042798 8.425699968803277 0.21770901429174175
0.497943589850356 13.171879073896745 84596.89647634915 8.851009278368826 0.22084440228243243
0.5164877825287741 13.136282215493472 71899.25277712154 9.294425522310384 0.22401411022901502
0.5354103485832687 13.10574563205188 61244.007648899074 9.756822083877905 0.22722088338566898
0.554723026479706 13.079727563396597 52272.208426262754 10.238996473505782 0.23046590978472184
0.5744108193213591 13.057761224852904 44700.297917458556 10.741439532385783 0.23374613855295182
0.594472857429902 13.03944336116491 38303.73887054347 11.265395200826326 0.2370677338552554
0.6149153770515958 13.02445581548151 32879.1779727433 11.81179705108678 0.2404322499826596
0.6357262659247405 13.012398277557017 28272.235077990565 12.381624967248351 0.24384132146298518
0.6569026515243558 13.002979286648632 24352.350273495664 12.975542802298257 0.24729261142727482
0.6784400665714485 12.995943707964422 21014.16886371192 13.594928193012091 0.2507914700776881
0.7003348027468191 12.991031731333312 18158.204978834052 14.240955892405855 0.2543402622146545
0.7225757907963105 12.987994104426132 15717.748537765316 14.914816735391925 0.25794097465131377
0.7451701637754664 12.986650667176084 13623.214711949053 15.617506108214357 0.2615931550298989
0.7680966810964954 12.986752344091652 11826.350515825723 16.350359691334795 0.26529938714179413
0.7913480473118695 12.988146318266411 10280.814218876176 17.114962000234318 0.26906402909150995
0.8149280366483316 12.990687759684434 8948.253708287002 17.912769591894964 0.2728895164344554
0.8388182080438997 12.994155510784179 7800.773350284384 18.745100594016364 0.27677650118999303
0.8630052569804402 12.998434249302322 6808.032062931621 19.61339533845163 0.2807263143544849
0.8874921230793109 13.003403778199386 5949.872746172862 20.519695955480326 0.284744905319477
0.9122558322008176 13.008883458202416 5206.310494927526 21.46579857575031 0.2888352914115841
0.9372829919474107 13.014787316060822 4561.192352419673 22.453127148873225 0.29299690307110904
0.9625732721833216 13.020991518867664 4000.5842663939816 23.483829814927706 0.2972345159198117
0.9880997583523189 13.027384197645235 3513.0158255611036 24.560273034313937 0.30155375863608674
1.0091986299620932 13.030882492524917 3156.8474169920796 25.830278446150594 0.9323791530916552
