M[M_sun], R[km], Lambda[1], P_c[MeV/fm^3], rho_c[fm^-3]
0.24162668629717493 15.618656898711224 2160425.4255784233 3.5677272577965504 0.1711233750220791
0.25363980155731014 15.277396263341341 1723219.4680532275 3.784759701282844 0.17388742636968718
0.26603280700959914 14.981415789350304 1383150.671835695 4.011275555882935 0.17666513934931302
0.278804201987482 14.72373610280014 1116654.6073558317 4.2475327756779455 0.17945524742148367
0.2919550571116873 14.498630612300644 906115.1932759167 4.49415562243192 0.18226430004943145
0.30548620988053643 14.301479288394615 738883.5708100938 4.75129509308996 0.1850879132768681
0.3193983667455527 14.128397561185825 605233.1350836969 5.019640971661466 0.18793287079076948
0.333691813208875 13.976237434502215 497866.704973249 5.299406990050463 0.19079559392272127
0.3483672860132399 13.842268186050145 411154.05787577864 5.5913335852055255 0.19368261901014805
0.3634257502501921 13.72425933723284 340810.96362042485 5.895573063645404 0.19658873284158562
0.3788722409245017 13.620304076655462 283441.34452008794 6.212995564363748 0.1995217441272913
0.3947008349958979 13.528717627863537 236542.96191430866 6.5438695891965954 0.20247802905600912
0.4109193340360178 13.448145820054918 197988.6222726069 6.888875242863918 0.20546092289039772
0.4275201727962455 13.377315728749814 166192.68907243328 7.2487271403719316 0.20847367665902306
0.44451114366555056 13.315154773516007 139893.31036283937 7.623700130279259 0.21151209228736498
0.4618849439404729 13.260782344449192 118064.2925810035 8.01471130342776 0.214581840324425
0.4796425500787297 13.21335869373605 99880.41938311413 8.422479668261607 0.21768480213356597
0.49779314210530523 13.17217050580728 84706.23717241363 8.847467596613594 0.22081875899328038
0.5163241766671741 13.136580762226185 71277.62301213568 9.290505145551524 0.22398651053222565
0.5352353771333117 13.106001937508498 61326.61078532371 9.752496432160449 0.2271912676843104
0.5545349698683418 13.079960820361654 52348.96763207087 10.234250105968615 0.23043437988014698
0.5742077752597304 13.057948939035505 44770.05236937035 10.73626761923961 0.23371293326849518
0.5942606420879342 13.03966457802331 38361.49334881822 11.259732720571293 0.23703235457615202
0.6146878709233006 13.02458968419955 32934.0734292793 11.805610554085606 0.24039462575895013
0.6354808727547142 13.012520060188539 28322.435480362725 12.374878917093627 0.2438013775994421
0.6566455368298523 13.003072329590633 24395.866537825605 12.968268177814164 0.2472510326568239
0.6781671214892936 12.9960306207365 21050.075251996175 13.587021696442754 0.2507474488230672
0.7000481558928691 12.991096912091367 18192.825773599972 14.23237513247144 0.25429371117322613
0.7222733657488506 12.988024576489048 15747.399808454466 14.905516597178902 0.2578918013148679
0.7448522110730508 12.986654646291848 13650.050577253272 15.607529316355013 0.2615421602877815
0.7677633238778698 12.986755930523902 11849.687730484753 16.339571144344536 0.2652456089409087
0.7909993328934731 12.988123933461926 10301.360414694713 17.103307555332552 0.26900735747247884
0.8145637409072187 12.990630244360563 8968.020360224622 17.900191516813805 0.2728298343675708
0.8384367291864988 12.994088040443684 7767.263406339844 18.73165467636608 0.27671472415549464
0.862608346945144 12.998359241265497 6823.307059871433 19.59890675602826 0.280661313222622
0.8870734172480338 13.003298527674843 5963.1967718258875 20.50409497873624 0.2846765394204147
0.9118240863336269 13.00879511391994 5218.0269092815 21.44901070037752 0.2887634105907881
0.9368344642936473 13.014671339448293 4571.4550619828 22.435222305064517 0.2929225365433998
0.9621034374793325 13.020875278346013 4009.919273399665 23.464583320257255 0.29715635018626424
0.9876182266690828 13.02726851234408 3521.4468178792936 24.539594302408233 0.30147161185088034
1.0133560728667164 13.033733844255753 3096.6229755597305 25.662296811236175 0.30587070263683813
1.0393059864465761 13.040168277390626 2725.4630516490943 26.83444881619118 0.31035339041994736
1.065450333428312 13.046506146967554 2401.737061811747 28.059239349419883 0.3149291299210607
1.0917697441951222 13.052633291406135 2118.8522401395358 29.33883913645992 0.3195991768157644
1.1182577037734667 13.058473790430265 1871.3757339319325 30.67576577139895 0.32436659947656954
1.1448817733606944 13.063930814149455 1654.5894313267715 32.07363259005296 0.32924091852513476
1.1716344767607887 13.068944229617985 1464.3555198393922 33.53419809123855 0.3342186554767315
1.1984807759124285 13.0734089847959 1297.4871903661863 35.062041405359594 0.3393136640608233
1.225418380212044 13.077283771613537 1150.853272899184 36.65936367066834 0.34452381618032396
1.252406441186969 13.08045917114496 1021.902805390889 38.33091452372379 0.3498617355118023
1.2794400635032053 13.082901249751638 908.1821471080701 40.07921981783282 0.3553257329032141
1.3064760090986562 13.084510133663182 808.0937704295919 41.9096153860777 0.360929581095355
1.3335052588390284 13.085232040731615 719.7964279485163 43.82537393081417 0.3666740818200843
1.3605012355982846 13.085050222279753 641.7394306314565 45.83155274356002 0.3725690639955171
1.387432175251049 13.0838005201509 572.7731693435379 47.93328980874929 0.3786234299596954
1.4142810958865264 13.08152951401945 511.710453057647 50.13510880020178 0.384841676356436
1.4410069929019018 13.078114069605606 457.669752422069 52.44265386711501 0.3912330085781582
1.4675888530826353 13.073518382897234 409.72501492044063 54.86211448987577 0.3978079777873951
1.493993594876088 13.06767315454607 367.2026590210155 57.39966658171748 0.40457562160565386
1.520202013665984 13.06055440311423 329.4228375628922 60.06192291583464 0.4115456858205047
1.5461817212082514 13.052093325104924 295.82468090687865 62.855972439996506 0.4187286826619584
1.5718958361764408 13.042241251222501 265.9681154741067 65.78942335334567 0.4261359538318458
1.5973130555637927 13.03093218457704 239.34413443854214 68.87045032703271 0.43377973884252696
1.6224039659307445 13.018153069772561 215.62315840826005 72.1078462977658 0.44167324928935486
1.6471554564239683 13.00384637604445 194.45908041140774 75.51107931713537 0.44983074975677406
1.6715093662204756 12.987948725620708 175.56282531769213 79.09035500051783 0.4582676461418316
1.6954448145187722 12.970435616383519 158.66875674762275 82.85529775682676 0.4669948871293057
1.718908975218288 12.951229216813328 143.56027634534482 86.81882881379342 0.4760348938608241
1.74192332678073 12.93038310481008 130.0297176556013 90.99289875992112 0.4854035719947973
1.7644033280511706 12.907765902861396 117.90503468588552 95.3908307121763 0.4951198671494902
1.7863308781500435 12.883362791068906 107.02439736281525 100.02701437536938 0.5052042301020844
1.8076741047510934 12.857143207327729 97.26981904308252 104.91755939865489 0.5156808181769187
1.8284027705810877 12.829087562186533 88.49977132776118 110.07863925021516 0.5265709038092706
1.8484813499231882 12.799139597692982 80.6195039830035 115.52836377667698 0.5378997800859087
1.8678763649860255 12.767288666940198 73.52300203978446 121.28678244772348 0.5496962895505124
1.8865559497002626 12.733492722384865 67.1343532336576 127.3751544438485 0.5619897614571709
1.9044898323273158 12.697725172070415 61.373421367507035 133.81633797640492 0.5748111082413275
1.9216444871674612 12.659969790805414 56.18142272137345 140.63498167572655 0.5881931120875117
1.9379787739439835 12.62016300091825 51.48935665310744 147.85915828234704 0.6021756291670136
1.9534776710350652 12.5783285596522 47.25474247588984 155.51782864270268 0.6167961843411628
1.9681168601799697 12.534484011993548 43.421667774779074 163.64362815077004 0.6320991028093009
1.9818526236739153 12.488549283036951 39.954341083382616 172.2708249320684 0.6481278604323707
1.9946562832241161 12.440531682561758 36.81301318309539 181.4385448408151 0.6649353041821435
2.0065094431610215 12.390426452467883 33.96887150733176 191.18848895396496 0.6825751095652285
2.0173833229854163 12.338232902011004 31.38683436106182 201.56654099533455 0.7011063132448602
2.0272416696223483 12.283917158255996 29.046578357190157 212.62312768406989 0.7205934855658694
2.0360757912124576 12.227520270299088 26.9191780882588 224.41227836106808 0.741102544070058
2.043844745927746 12.168999567864246 24.98662767462323 236.99625309115245 0.7627146288211285
2.0505304285135644 12.108368290074877 23.228361578106735 250.44043297635304 0.7855079545708193
2.056124970610137 12.045665197729429 21.631865069783665 264.8187943316789 0.8095740605867328
2.0606052829761485 11.980912334101317 20.178338591430467 280.212645435829 0.835011826816716
2.0639472535818473 11.914105465065962 18.853916731466324 296.71112227785915 0.8619269620794716
2.066134019704211 11.845265154424936 17.64881864781006 314.41372261243305 0.8904378362598842
2.0671570566434214 11.774451041878221 16.55122524666707 333.4306203418274 0.9206737137181233
