M[M_sun], R[km], Lambda[1], P_c[MeV/fm^3], rho_c[fm^-3]
0.24162668629717493 15.618656898711224 2160425.4255784233 3.5677272577965504 0.1711233750220791
0.25364597169146624 15.277235738796081 1723014.284949188 3.7848581019199554 0.17388865288615873
0.2660437454819019 14.981176238055381 1383001.1045772354 4.011482413059975 0.1766676390962188
0.27882168000147267 14.723381058038221 1116351.4865146282 4.247855087076605 0.1794589857479952
0.29197881217831656 14.498266642527962 905757.2942649425 4.494601845108062 0.18226926884249317
0.3055162080162558 14.301081713101139 738528.8998662046 4.751880377619703 0.18509423546682163
0.31943622285227924 14.127965379772416 604984.5474793601 5.02036962871135 0.18794043088889784
0.3337362911888144 13.975778630612567 497572.0626937956 5.300298202250734 0.19080456695078954
0.34842061931029034 13.841862029996383 410904.0707905668 5.592389576982935 0.19369283602108783
0.3634860401706007 13.723823260853543 340575.1480290591 5.896817558205687 0.19660042139785894
0.378942645436437 13.619879609198781 283224.65860229963 6.214443620758067 0.19953494865803406
0.39477881195896974 13.52829835809386 236339.28101347934 6.54551970326599 0.20249249832720279
0.41100704000691196 13.447718239820196 197799.01932703902 6.8907592684264385 0.20547696804268878
0.4276186980171435 13.3769089085878 166012.4848399309 7.250862755521666 0.20849134405584555
0.44461670202625087 13.31480017337314 139747.67776236753 7.626081431749523 0.2115310489782401
0.4620011101834434 13.260432468073178 117929.19194485332 8.017379824722589 0.21460248349404734
0.47977119150849673 13.213043427448142 99763.11970676515 8.42545621642706 0.21770718161463218
0.4979319404013228 13.171883892574611 84603.48048857487 8.850741196126124 0.22084246125245255
0.5164752201291675 13.13630165068826 71905.64737403064 9.294128770671989 0.2240120210789804
0.535397223415385 13.105758253569288 61243.9881548731 9.756494649968902 0.22721864159980706
0.5547083079334498 13.07974810598852 52277.52528410774 10.23863972597992 0.23046355570177762
0.5743953840267417 13.057795857637318 44705.60419264779 10.741048028657875 0.23374362497774598
0.5944561009441752 13.039458996181194 38305.509062294375 11.264966555508172 0.23706505567155067
0.6148983205319122 13.024457590571522 32884.45671349488 11.811328730889795 0.24042940181448694
0.6357075749696298 13.012393200470077 28274.89662038189 12.381114280793442 0.2438382976505912
0.6568825207285786 13.002997248386805 24356.31540456546 12.974992094808044 0.247289463809089
0.6784198979298369 12.995964396050908 21015.091963753133 13.594329642023931 0.2507881375061474
0.7003128726295496 12.991042148803208 18160.899875886334 14.240306287217788 0.2543367380748052
0.7225533434459988 12.987983560959616 15718.88341251606 14.914112658951185 0.25793725193376793
0.7451454890577042 12.986638230617988 13624.53124206505 15.61675079541187 0.26158929437187134
0.7680714898969586 12.986755639228138 11827.582943351985 16.349542910442004 0.2652953156938993
0.7913215257563588 12.988153979045768 10282.52567073159 17.11407965020731 0.2690597385221174
0.8149006692311375 12.990680738844874 8949.872960859806 17.9118172997209 0.27288499787618165
0.8387893442017978 12.994147676369849 7801.992771830348 18.74408258418179 0.2767718239615356
0.8629764208577516 12.998418042005442 6809.315822086612 19.61229836989561 0.2807213929483959
0.8874614079462207 13.003382817323155 5950.676642426681 20.518514746159468 0.2847397290770836
0.9122231722243539 13.008879154281924 5207.290827174949 21.46452748181991 0.28882984895546643
0.9372495355257825 13.01477575211967 4562.0734324046425 22.45177146638151 0.292991272337847
0.9625295736526945 13.020987426882469 4001.4539292472973 23.586546637956335 0.29762625939825493
0.9783899738032984 13.018843190045102 3674.6528552645145 24.771915038659618 0.7924709841307728
