M[M_sun], R[km], Lambda[1], P_c[MeV/fm^3], rho_c[fm^-3]
0.24162668629717493 15.618656898711224 2160425.4255784233 3.5677272577965504 0.1711233750220791
0.2536384190523076 15.277419001406123 1723293.7864793132 3.784735250027189 0.17388712159658112
0.26603071359194863 14.981457980755373 1383212.7222306281 4.011224155796507 0.1766645182096028
0.27879999817688184 14.723807823151688 1116658.7186637465 4.247452689187861 0.17945431853888644
0.29194867924451173 14.498755999207448 906192.2754833959 4.494044749427041 0.18226306545278984
0.30547887330397105 14.301568712792747 725729.087809803 4.751149670565248 0.18508634243605815
0.3193889078909669 14.128492145027883 605316.8483301895 5.019459929894267 0.1879309924125591
0.33368027810783263 13.976334357812465 497963.74039083126 5.299185564656568 0.1907933645364159
0.3483545225151506 13.842409066874339 411258.8308212642 5.591071224879323 0.1936800806018192
0.36340995368860446 13.724393430652688 335934.4147868929 5.895263876425239 0.19658582888978285
0.37885611301604716 13.620380145540349 283505.5689309999 6.212635810902185 0.1995184636088932
0.39468058112913185 13.528831345220969 236591.9279367038 6.543459644540816 0.20247443439518603
0.41089818194163164 13.448209729649097 195535.26437603062 6.888407196146391 0.20545693680814306
0.42749711878642366 13.377412452456198 166230.52741998126 7.248196602232807 0.20846928765296335
0.44448350383319984 13.315253765809604 139928.4028492234 7.623108568480068 0.21150738307507044
0.46185679069909635 13.260851711007016 118096.93940779252 8.01404840381917 0.21457671226002126
0.4796117586106006 13.213437747471593 99921.4523471304 8.421740264947971 0.2176792428543143
0.4977595863716044 13.172234157065718 84736.35302635703 8.846654417045544 0.2208128712257628
0.5162869017407763 13.136661254338156 72023.18122317707 9.2896050353685 0.2239801737004218
0.5351959303065085 13.106058685305896 61353.02438029676 9.751503292348781 0.2271844681234602
0.5544915535445699 13.080020923969473 52366.19903396612 10.233157467089333 0.23042710333145075
0.574161523767861 13.057998417283374 44785.997959587 10.735080229382083 0.23370530985780252
0.59421308251669 13.039672022132647 38378.940843477845 11.258432730930686 0.2370242322173525
0.6146348624886717 13.024628762192979 32948.169419140366 11.804190290058978 0.24038598818401002
0.6354255279732274 13.012533687051812 28331.33423484884 12.373330225496762 0.24379220768157955
0.656582210573719 13.003089080584285 24407.66396069141 12.966598170145803 0.24724148757781045
0.6781060424122074 12.99604766709566 21061.382240524526 13.585206669365029 0.2507373432385733
0.6999825456272802 12.991108220294056 18200.007548160673 14.23040536073305 0.2542830250654107
0.7222037374251532 12.988023141887625 15753.75187137645 14.90338173093915 0.2578805134723144
0.7447796412687974 12.98664604887314 13656.012270988163 15.605239161611973 0.2615304545358548
0.7676871494637515 12.986736522230402 11855.108176594253 16.337094703327622 0.2652332645035522
0.7909189526056944 12.988117401046182 10237.600224765027 17.100632407961804 0.2689943491366958
0.8144806117962218 12.990618168619134 8972.508922416153 17.89730441993379 0.2728161352993124
0.8383476635783026 12.994080539071918 7820.592018371887 18.728568431988535 0.27670054445944553
0.8625168660260347 12.998342109706698 6826.783465314681 19.595581257421205 0.2806463938076544
0.8869782359517244 13.00328493609675 5966.465354949509 20.500514231825672 0.284660848032249
0.9117235994396219 13.008780360987673 5220.703069537119 21.445157616336342 0.2887469128007268
0.9367319311359071 13.01465501037738 4574.3610743032295 22.431112928800935 0.2929054685339249
0.9619966958767607 13.020850749671922 4012.351778267021 23.46016611245844 0.29713841059291296
0.98750844510088 13.027238245371207 3523.5412909844727 24.534848487087267 0.3014527589795544
1.0132385768140455 13.033691529643965 3097.9942256693903 25.657240751285148 0.305851190327745
1.0391870917803225 13.040141105937687 2726.971359597661 26.829020738880985 0.31033288412130083
1.0653295349035554 13.046472863253674 2403.1133766582616 28.0534138654515 0.31490757892274707
1.0916436586204434 13.052604926149643 2120.0541592461454 29.33263688278395 0.31957685251073403
1.1181289895765336 13.058441091721212 1872.4925638557822 30.669112748369958 0.32434313050672964
1.1447471478266196 13.063905821073382 1655.6065182836521 32.06649760771132 0.3292162429806209
1.1714986775459304 13.068919926676774 1465.2626972795126 33.52660392091595 0.3341930623397526
1.1983459480582745 13.073399574254184 1298.2951110531228 35.053899339850716 0.3392867404575044
1.2252760254591648 13.077260990366902 1151.6193438891353 36.65069732454105 0.34449585988923886
1.2522597296018405 13.08044194273149 1022.4996639338241 38.32162425846725 0.34983230598809817
1.2792903477319986 13.082896243223606 908.8046911371291 40.06932983709002 0.35529513660682494
1.3063233091735345 13.084501685286178 808.5977554964757 41.899084838613135 0.36089774565499866
1.3333495677736174 13.085232403519855 720.2328210028894 43.81408484230152 0.36664052481073806
1.3603487786753266 13.085045978275826 642.2123303208236 45.81952875318852 0.3725340998648524
1.3872709719401521 13.083811820649629 573.1317942037482 47.92047959775919 0.3785869679639915
1.4141092925970995 13.081534043319799 512.0494334149702 50.121372014214664 0.38480318436827504
1.4408417258141524 13.07813623975025 457.9724506032783 52.42801229771353 0.3911928083143037
1.4674218796879441 13.073552305980455 410.02259693013997 54.846503357629054 0.39776595542698784
1.4938257876473562 13.06771367077152 367.4407537962113 57.38301586252278 0.4045316545332402
1.5200317814167978 13.060611522387111 329.6438724026145 60.044156871603036 0.4114996419042711
1.5460113190428635 13.052155013650811 296.0386913514825 62.8370091025326 0.41868041946046053
1.5717230709066952 13.042311132291552 266.13634674305916 65.76917395621618 0.42608531772157826
1.597139860882581 13.031017684423832 239.5248906127732 68.84881867957937 0.433726564057759
1.62223279206386 13.018236721049231 215.7833336307503 72.08472809470032 0.4416173568646421
1.646982084651282 13.003951958816625 194.5944397132963 75.4863613763458 0.4497719463614092
1.671336788695265 12.988067634558934 175.6879401291902 79.06391442078714 0.4582057227941777
1.6952596412363574 12.970558589757374 158.7874944808184 82.82713594176643 0.46693017136031756
1.7187367236653062 12.951372623270835 143.65661026007808 86.78867199289637 0.47596660349893044
1.7417531620549584 12.930546565262967 130.1328381026347 90.96073437547476 0.4853320180786884
1.7642336383226378 12.907944997161257 117.9893770255821 95.35634921850199 0.4950442070530254
1.7861639484936258 12.883557946470463 107.11179034620676 99.99018575785038 0.5051247555432428
1.8075092887650066 12.857361463800151 97.33513181827247 104.87819285733048 0.5155972232439008
1.8282397403881596 12.829319095302278 88.56537359103831 110.03636030318744 0.5264822381590344
1.848321118176993 12.799391631452583 80.67862086659356 115.4831061554323 0.5378062934576217
1.8677202949558556 12.767556554006356 73.58122704397132 121.23829749232821 0.5495975919490816
1.8864039562255044 12.733782319053939 67.18539707265194 127.32317021188776 0.5618854295184152
1.9043434626184648 12.698034067098638 61.42188674221299 133.7607477599823 0.5747013558935004
1.9214911894852247 12.660267794405318 56.22387107398753 140.57527574057605 0.5880767822208188
1.9378414321359614 12.62051521991801 51.53062509441765 147.79497945941347 0.6020521780080054
1.9533529442702942 12.578731353719709 47.28869635372645 155.44899576547067 0.61666573914854
1.9679911294750112 12.534881216040594 43.45522376653512 163.56950845975402 0.6319603185775677
1.9817328744032037 12.488970539752783 39.982735872645 172.19117088441055 0.6479807879425639
1.9945447607539972 12.440978166741758 36.84209683484808 181.35285188097538 0.6647792132675953
2.006405040895312 12.390895589895319 33.99496363735688 191.09620121740164 0.6824092027943837
2.017292504520787 12.338747523738403 31.40979279530241 201.46704533770705 0.7009297182670087
2.0271499954741508 12.284427404588316 29.068163338063414 212.5158509330529 0.7204055872996813
2.0359832289410695 12.228029225607226 26.937716818593085 224.2965234172169 0.740902458893877
2.043774966242338 12.169571816910898 25.004102111863066 236.8713099649012 0.762501589313399
2.0504773812800483 12.108984432848567 23.24572507014642 250.30512921211076 0.7852798630082212
2.0560749201096056 12.046293722410063 21.646490326175154 264.672393889891 0.8093304417459114
2.0605672520606046 11.981565610683814 20.191765477970627 280.05403636468776 0.8347512073250934
2.0639186137880516 11.91478890992535 18.86601604818902 296.5393610085458 0.8616486780468083
2.0661159535356917 11.845974137593123 17.660296791748042 314.22714657280284 0.8901391647171188
2.0671520549208546 11.775189409856063 16.56188669456992 333.2280004120396 0.9203536917241892
