M[M_sun], R[km], Lambda[1], P_c[MeV/fm^3], rho_c[fm^-3]
0.24162668629717493 15.618656898711224 2160425.4255784233 3.5677272577965504 0.1711233750220791
0.2536389082013251 15.277447215792074 1723297.2567129717 3.7847465514185124 0.17388726246297198
0.2660316069608071 14.981411128572523 1383188.9497792067 4.011247912901954 0.17666480530020165
0.2788021767377551 14.723757411987911 1116668.3693437658 4.247489705052859 0.17945474786713872
0.2919515513731346 14.498692603920034 906137.4555573978 4.494095994657713 0.18226363608032678
0.30548265800780355 14.301516701857407 738919.05047445 4.751216884341024 0.18508706847311596
0.31939349802747496 14.128453003354275 605284.5846651343 5.019543606571599 0.18793186059038264
0.3336851046826756 13.976298485435452 497902.4315907823 5.299287906226852 0.1907943949462133
0.3483604593520888 13.842317393369505 411204.44772596034 5.591192486085504 0.19368125383734683
0.36341665351874924 13.724330729714053 340840.44730242813 5.8954067803916 0.1965871710740766
0.3788629200116885 13.620357778074585 283479.08315529744 6.212802085828368 0.19951997983601194
0.3946897104042902 13.528776675990551 236566.2731169472 6.543649117016192 0.2024760958128303
0.410907661475807 13.448181953094123 198014.83992060108 6.888623522363869 0.20545877913298888
0.4275086929359982 13.377338266164525 166218.06060185624 7.248441810789513 0.2084713162005114
0.44449567403864304 13.31520477724894 139917.60843058422 7.6233819809319545 0.21150955961399107
0.4618698551569481 13.260818728582588 118080.42406890859 8.014354787059546 0.21457908238208578
0.4796263843549063 13.213393127227897 99907.23944804085 8.422082006441649 0.21768181227260092
0.4977746542199158 13.17221070057027 84723.70725121823 8.847030256153714 0.22081559246148963
0.5163044930202455 13.136613938942673 72013.1711052991 9.290021051600725 0.22398310248063227
0.5352135977114525 13.106034841570297 61338.99630135026 9.751962304398452 0.22718761076292146
0.5545114575482206 13.079980205577703 52358.596593020484 10.233662464836428 0.23043046641944614
0.574183816259538 13.057969631896208 44778.34318269326 10.73562901832106 0.2337088332527843
0.5942345533833523 13.039686248569774 38370.313730362745 11.259033560101644 0.23702798620888543
0.6146599836380096 13.024625593071432 32941.009760831046 11.804846706289235 0.24038998028989628
0.6354513149393815 13.012537122423455 28327.248284807745 12.374045996781168 0.24379644581646687
0.6566135975005264 13.00310012766771 24403.394247829667 12.967370009720298 0.24724589909631053
0.678135041412217 12.996043140313274 21055.50605160904 13.586045531893832 0.2507420138003889
0.7000131677720707 12.991086921821694 18197.111988418255 14.23131574071146 0.25428796392122466
0.722235303393926 12.988017677874145 15751.425739643286 14.904368411502558 0.2578857304243852
0.7448127145849716 12.986648803934658 13653.506694974716 15.60629761075 0.2615358646257513
0.7677215475723466 12.986748441304554 11852.491196236808 16.33823924671802 0.265238969765292
0.7909560066061684 12.988115746836291 10235.379903327144 17.101868785452957 0.2690003612217627
0.8145190110855239 12.990634345000473 8970.314595940388 17.89863875173676 0.2728224666083082
0.8383883985890963 12.994097753850856 7818.782606083849 18.729994801533792 0.27670709788948256
0.8625591923929182 12.998349918095055 6825.177595369888 19.597118199897203 0.28065328909924525
0.887022154131252 13.00329831102928 5965.001489877966 20.50216913870469 0.28466810009079024
0.9117713958289579 13.008776738907327 5219.5065542357 21.44693838499715 0.2887545375364449
0.9367794682232418 13.01466086354809 4572.75290545348 22.433012144055457 0.292913356792843
0.9620451375777527 13.02086014305054 4011.2453380652773 23.462207592741336 0.29714670165092466
0.9875603704230645 13.027246270638754 3522.567278392888 24.53704183367887 0.3014614721043324
1.0132954726047247 13.033709782364646 3097.4541258074596 25.659577477832286 0.3058602082055185
1.0392400655149396 13.040160289455839 2726.2702317483613 26.831529392841386 0.31034236136423105
1.0653845246232585 13.046494378488237 2402.503027513792 28.056106179980834 0.31491753896489916
1.0917022861487458 13.052615508708492 2119.5308342406374 29.33550332068619 0.3195871699271803
1.118189706405316 13.058449373913893 1871.9406872618988 30.67218750729298 0.32435397691807
1.1448089355439064 13.06391363068152 1655.0546185147916 32.069795101352426 0.32922764699638846
1.1715621728301222 13.068932687246695 1464.8354343987808 33.53011362580869 0.3342048904071068
1.1984103432651063 13.073406606570964 1297.901624731596 35.05766225009141 0.33929918338154313
1.2253424285492815 13.077276274883303 1151.2947398697486 36.65470252705311 0.34450878005255076
1.252327969346158 13.08045025093211 1022.1910622681679 38.32591779871095 0.3498459069823526
1.2793595055827398 13.082902415402554 908.5104806350976 40.07390052984023 0.3553092768032243
1.3063937587402012 13.084503176280897 808.3836940167195 41.903951562162874 0.3609124584975949
1.333421505260034 13.085221657380071 720.0000744803182 43.81930211501005 0.3666560332434026
1.3604219183168893 13.085047547466555 642.002208430214 45.82508565080502 0.37255025856827373
1.3873455906470569 13.083808860596617 572.9935098658029 47.92639983563864 0.37860381887209077
1.4141932372958543 13.081537997518405 511.89856913654165 50.12772045232732 0.384820973391479
1.4409179432553985 13.078124028272024 457.8385541731854 52.43477886574873 0.3912113867749144
1.4674998558289787 13.073537749798781 409.8871277489228 54.85371799107021 0.39778537592268787
1.4939037008091078 13.06769757822858 367.33291985334137 57.39071092038211 0.40455197372559293
1.5201106898911088 13.060584112380731 329.548642655195 60.05236735327839 0.41152092085222197
1.546090230978099 13.052126603004726 295.9376337334122 62.84577288629008 0.418702723986875
1.5718032683430545 13.042278715786388 266.04808319231915 65.7785320617048 0.42610871881635587
1.5972196913756784 13.030977348078455 239.4437934447508 68.85881555707729 0.43375113832148304
1.6223107066204636 13.018206696666256 215.7153748234118 72.09541194412488 0.4416431869971966
1.6470631799316822 13.003900021666569 194.53467204407693 75.49778449943274 0.4497991217005243
1.671416682662509 12.9880113369337 175.62507816912884 79.07613361027329 0.45823433990947193
1.6953513642328217 12.97050949400422 158.7315626227755 82.84015054964736 0.46696007889132324
1.7188163665835563 12.951305208332236 143.6111259149837 86.80260852764353 0.4759981628932272
1.7418317424183352 12.930471766249976 130.08211093440963 90.97559864066977 0.485365085597408
1.7643121217467226 12.907863061286626 117.95222305316308 95.37228425301795 0.49507917207687374
1.7862406258623473 12.883469224788906 107.07258204789103 100.0072054320387 0.5051614832617635
1.8075851147912991 12.857261267043805 97.30876217233555 104.89638533858142 0.5156358550159701
1.8283165777592838 12.829210910052469 88.53875780499686 110.05589863469501 0.526523213135694
1.8483942881433075 12.799276883372803 80.6489651313656 115.50402096000529 0.5378494962267252
1.8677925783705955 12.767434096914053 73.55139094730526 121.26070367246979 0.5496432027209008
1.8864743862729756 12.733648555923665 67.1629902684703 127.34719342803784 0.5619336439215438
1.9044106870520836 12.697891985543142 61.398160378395296 133.7864373219985 0.5747520750654586
1.9215502835761076 12.660085986491726 56.20483030395001 140.60286718556506 0.5881305408481536
1.9379049833583328 12.620354804367086 51.51058664213155 147.8246378273499 0.6021092273543269
1.9534097329368378 12.57854488745338 47.27368801707251 155.48080477138146 0.6167260203988674
1.9680497491964357 12.534698060759624 43.43788493418448 163.6037604836194 0.6320244532326412
1.9817887500315718 12.488775334068565 39.97123342873078 172.22798031126717 0.6480487525245952
1.994596528109671 12.44077163675119 36.828718104480515 181.392451851398 0.6648513451628048
2.006452999483048 12.390677634864169 33.98256328555827 191.13884857893075 0.6824858704676827
2.0173372314977027 12.338517885709253 31.399256789323296 201.51302340344927 0.7010113247983389
2.027194636622069 12.284195629513949 29.057652202088953 212.5654725988285 0.7204925743542153
2.036020149242514 12.227778859462013 26.92886147531167 224.35001468203703 0.7409949198185649
2.0438071933143345 12.169307608976482 24.99538276949852 236.92904694017068 0.7626000361600423
2.0504987274585744 12.10869018450858 23.238916057831762 250.3676536337566 0.7853852650501644
2.056097634579814 12.046003620351431 21.639582616370046 264.740045851514 0.8094430185405482
2.060584688723176 11.981263547271542 20.184860171132588 280.12732964464135 0.8348716396384751
2.0639326895445578 11.914472255655124 18.860738588506887 296.6187315870418 0.8617772726056805
2.0661233083170676 11.84564602678376 17.65443770778961 314.3133626281947 0.8902771796644081
2.067154047473428 11.774848581134938 16.556857112498427 333.321629855607 0.9205015719512368
