M[M_sun], R[km], Lambda[1], P_c[MeV/fm^3], rho_c[fm^-3]
0.24162668629717493 15.618656898711224 2160425.4255784233 3.5677272577965504 0.1711233750220791
0.2536413713250584 15.277351820611916 1723078.5448622142 3.7847951011559258 0.17388786761202768
0.2660378757736488 14.981277992466 1382991.7330882475 4.011349972386269 0.17666603862883823
0.27881089421477107 14.723600396069264 1116423.9202853278 4.247648725310583 0.1794565922624899
0.29196342094886624 14.498516729422196 905992.4543012837 4.49431614663438 0.18226608752368156
0.305496761621338 14.301332921573628 738749.4257071995 4.751505641047992 0.18509018759665166
0.3194112498708178 14.128248134356665 605179.6291611968 5.019903093092967 0.1879355904017909
0.3337075234362135 13.976052915906045 497760.57532968384 5.299727584286933 0.1907988217747205
0.34838673806558756 13.84209990927741 411078.55134562077 5.591713451424411 0.19368629432031337
0.3634474571691615 13.724105757203008 340718.0620928341 5.8960207341450195 0.1965929374576552
0.3788991674301347 13.620116302958053 283359.3079981529 6.213516454724066 0.19952649402018455
0.39472839020126493 13.52855557339823 236453.67169322728 6.544463157339464 0.2024832338467508
0.4109508662722344 13.448000525502898 197918.91661699416 6.88955294502352 0.20546669448637556
0.42755627023016757 13.377157513511145 166129.48178008504 7.249495333752281 0.20848003172598759
0.4445491520379159 13.315036669602415 139846.25430740902 7.6245566905135185 0.2115189110575961
0.46192727438108294 13.260663914348509 118013.5276763487 8.015671167561713 0.21458926564951797
0.47968935978323507 13.213242340157246 99838.57687994436 8.423550318429147 0.2176928519260844
0.49784305643097326 13.172065817434646 84671.47027935284 8.84864508421022 0.22082728450658168
0.5163781692600318 13.136481951922855 71964.07559095028 9.291808521484237 0.22399568638004796
0.5352947881531526 13.10589775425201 61299.13588768423 9.753934530352838 0.22720111366576523
0.5545972467981934 13.07988681358316 52319.501353080785 10.235832296983675 0.23044491665509256
0.5742754738337585 13.057928053979927 44747.218416089294 10.737987027987186 0.2337239724052608
0.5943313098266446 13.039563736043123 38344.493987066206 11.26161519795215 0.23704411632889347
0.6147653750179809 13.024528170852356 32915.149078591465 11.807667216613892 0.24040713369858777
0.6355624410381135 13.012458695265485 28306.412426466894 12.377121574632989 0.2438146565411445
0.6567310260181723 13.00304533589623 24381.942603137297 12.970686532007827 0.2472648549777021
0.6782594636263947 12.995991951016116 21037.979512710397 13.589650079161816 0.25076208295386104
0.7001438102818242 12.99106770269755 18181.179065709308 14.23522763115053 0.2543091861177765
0.7223727198156632 12.98800097648291 15736.607826835307 14.908608204166493 0.2579081478064013
0.7449573030966131 12.986657386114759 13641.149428060355 15.61084583007895 0.2615591121060078
0.7678739226475979 12.986748593549141 11841.304561535117 16.343157464200566 0.2652634858459109
0.7911145585983352 12.988125137050115 10294.232152803816 17.107181673093873 0.2690261959952658
0.8146857597655853 12.990657745720265 8961.029497204257 17.90437261678533 0.27284967338797267
0.83856364994539 12.994117309195921 7811.200963637293 18.736124216563237 0.27673525938009835
0.8627401163791847 12.998386222159896 6818.322164891078 19.603722832956354 0.2806829199224576
0.8872108292268573 13.003328392074772 5958.77229781448 20.509280762483037 0.28469926432886167
0.9119673673356656 13.008817847206107 5214.209865559592 21.45459094726025 0.2887873035919731
0.9369834256719296 13.014711376791219 4567.888915964492 22.441173774538843 0.2929472555593433
0.9622577502055085 13.020914456847382 4007.003471157126 23.47098067348493 0.2971823317385607
0.9877790060777382 13.027301386301446 3518.7112054915538 24.546467638253276 0.30149891635126697
1.0135178002985592 13.033765007497198 3094.043027196869 25.669619530259727 0.3058989624198261
1.039475788322297 13.040216447956173 2723.191375356716 26.842310407638582 0.3103830900968024
1.0656252329077982 13.046556371293997 2399.4753643087793 28.06767659691224 0.3149603429683313
1.0919513398411773 13.052672810527337 2117.185052471341 29.34782214497189 0.31963151013081215
1.118445832440044 13.05851021877878 1869.7743934931207 30.685401747682924 0.32440059100730695
1.1450727615931462 13.063962559361661 1653.1442173660394 32.08391767176475 0.3292763406958023
1.1718317279600383 13.068983695311193 1463.1561693622384 33.54519739288996 0.3342557242573722
1.1986828332233839 13.073441671623241 1296.287215567241 35.07383439531518 0.33935266028151967
1.225625799826348 13.077309594006914 1149.8035117485842 36.67191613761328 0.3445643084956082
1.25261875677941 13.080475407761707 1020.8808106293084 38.3443708292366 0.3499043621377514
1.2796556121429172 13.082920696489591 907.3663156397558 40.09354489600585 0.35537004990938204
1.3066971227787123 13.084514160803623 807.3490358656601 41.924868425636646 0.36097569334476703
1.333729835758211 13.085231917878945 719.1102714245095 43.84172586697957 0.36672268823096654
1.3607353759016068 13.085042315291464 641.083953488998 45.84896932643853 0.37261970905266384
1.387664194822788 13.083787340778626 572.240071134268 47.951845396453564 0.3786762451521758
1.4145170717039646 13.081503464735816 511.1890967387844 50.1550067644049 0.38489743264493415
1.4412386960076087 13.078062756369903 457.1987416550105 52.46386263319568 0.3912912399035777
1.4678317954810607 13.07346938889024 409.328327583846 54.88472792399704 0.39786884908511205
1.4942379656080913 13.067613735983278 366.80848917962624 57.42378615116576 0.40463931055771163
1.5204488292608753 13.060479903959337 329.08861844928464 60.087658369353974 0.41161238390200405
1.5464308774597022 13.05200461675701 295.52816207488166 62.88344255598578 0.41879859629112215
1.5721457932421845 13.042137893555784 265.67010768396494 65.818756763474 0.4262093056348789
1.5975684882707362 13.030822418652871 239.10439299367076 68.90178642374667 0.43385676904569687
1.6226561814042966 13.018022281751543 215.40815244432025 72.14133623520449 0.4417542172522032
1.6474065599752472 13.003691543779158 194.24734388992775 75.5468871161471 0.44991593566203847
1.6717568452050129 12.9877740145842 175.364914559165 79.12850423751294 0.45835670748772706
1.6956945541732982 12.970240469813305 158.4875169664174 82.89609545365941 0.46708864011780493
1.7191584131526856 12.95100927523533 143.4019961898889 86.86251720220646 0.4761338265654836
1.7421637262866845 12.930124678102798 129.89103496581552 91.03949602925633 0.4855072337672298
1.7646431002830998 12.907494475027345 117.76825950230906 95.44078549091212 0.49522947908839665
1.7865738785610294 12.883077802537507 106.91048175588129 100.08037015254179 0.5053193695544476
1.8079143705682619 12.856839418169383 97.16292172274882 104.97459270200324 0.5158019285161254
1.828628733704778 12.828724655409175 88.40348135870002 110.13989285318601 0.5266993623192039
1.8487100243220997 12.798781679355617 80.5307344233947 115.59393371457605 0.5380352249511621
1.8681013747129485 12.766898688009832 73.44239072285838 121.35702912792793 0.5498392860488722
1.8867760539090124 12.733072844908865 67.06246527174328 127.45047202780448 0.562140923247201
1.90470315439077 12.697278717085787 61.307805546704806 133.89688110451345 0.5749701253846331
1.921850413101665 12.659490567343765 56.11910410862041 140.7214892193933 0.5883616616797307
1.9381711953037029 12.61962469886117 51.43394510858553 147.95214796723957 0.6023544994524297
1.953676068640024 12.577816712977723 47.203076305827686 155.61756304636592 0.6169851910196592
1.9682981581640877 12.533913190274378 43.37423713666263 163.75102453530758 0.6323001954543814
1.9820232583835404 12.48794194236264 39.91205789892811 172.3862421040785 0.6483409656210348
1.9948201491948752 12.439889543962789 36.77311617157415 181.56271421580988 0.6651614804204024
2.0066602257512414 12.389746857843747 33.9324374280649 191.32221634681417 0.6828155129031724
2.0175222607319143 12.33751771631541 31.353513837051615 201.7107152804395 0.7013622083793009
2.0273685619240482 12.28316607249547 29.014186266466172 212.77836718047183 0.7208650677771405
2.0361893944210863 12.226728011785601 26.891091345161627 224.5800188980424 0.741392487581554
2.0439452806537246 12.168166277435535 24.961529117757404 237.17731137432745 0.7630233498262391
2.0506164308794363 12.10749352105287 23.205204577270827 250.63650893905492 0.7858384943231396
2.056195660467333 12.044758549787138 21.60949679726947 265.0309550835754 0.8099271084041685
2.0606623176328167 11.979964983449772 20.157247487897095 280.44249889424975 0.8353895049717057
2.063986531912502 11.913114973865731 18.835605399808887 296.960045118724 0.8623302616839448
2.066156296960185 11.84423516928357 17.631872876137464 314.68412131341586 0.8908706913968263
2.0671634638318803 11.773378072096941 16.535556289412963 333.7242770862562 0.9211375210888134
