M[M_sun], R[km], Lambda[1], P_c[MeV/fm^3], rho_c[fm^-3]
0.24162668629717493 15.618656898711224 2160425.4255784233 3.5677272577965504 0.1711233750220791
0.2536436202103485 15.277270062557847 1723164.3195597385 3.784814107263838 0.17388810451399397
0.26603939624458967 14.981262750973272 1382974.2980796155 4.011389926837891 0.17666652145480657
0.2788140007562885 14.72354296879879 1116490.0185069074 4.24771097964146 0.1794573143189128
0.2919677057358772 14.498456969296141 905913.3465625627 4.494402334253269 0.182267047242821
0.305504140471169 14.301224068347306 738647.4095103241 4.751618688199316 0.1850914087216397
0.31941952576829913 14.128142173344287 605112.3841270721 5.020043832305747 0.18793705062544383
0.33371636335817845 13.975967631736511 497689.46368000266 5.299899720568872 0.19080055490145387
0.3483969544903348 13.842060813529248 411026.2050480371 5.5919174143459855 0.19368826771768788
0.3634592464544696 13.724019925989117 340666.86053276615 5.896261105689382 0.19659519507806789
0.3789120576611335 13.6200293898124 283321.4347586913 6.213796143407732 0.1995290444442125
0.3947437250622424 13.52847400628049 236412.52500511953 6.544781872563842 0.2024860285487054
0.4109672478229851 13.447931513722597 197889.48181256285 6.889916839122966 0.20546979356122866
0.42757508412473977 13.377083259823777 166087.55135138182 7.2499078210693835 0.20848344412785053
0.4445694153100304 13.314952592962001 139816.58217375103 7.625016630782918 0.21152257247788114
0.46195033637199223 13.260587046457069 117989.17553907244 8.016186582643098 0.21459325280186767
0.4797116670108133 13.213201411483322 99823.89042938052 8.424125226970212 0.21769717443460582
0.4978703639125652 13.172003807172521 84650.78978830915 8.849277366275999 0.22083186249889125
0.5164074498877806 13.136426740343593 71944.7151654063 9.292508408574292 0.22400061362879484
0.5353254805313983 13.105859301510435 61280.9279826351 9.754706767300963 0.22720640080868093
0.5546315667570406 13.079836454888563 52304.97583414381 10.236681916913733 0.23045057479238892
0.574312389892683 13.057868012927308 44736.060055692134 10.738910339224095 0.23372990034940777
0.5943652264612805 13.039562966710667 37997.154909177516 11.262626084606373 0.23705043236700238
0.6148040676616575 13.02451619702362 32905.11422003407 11.808771649766511 0.24041385049486172
0.6356059444915134 13.012432595948763 28295.029482069436 12.378325897853452 0.24382178742829724
0.6567761350465895 13.00302614585533 24373.443044834537 12.971985214903125 0.2472722777165816
0.6783072929609323 12.995982273959509 21030.48936083027 13.591061561664567 0.2507699417102776
0.7001947031518181 12.991070492959578 18175.182845402003 14.23675948042149 0.25431749647483337
0.722427725031554 12.987997753127292 15732.319517153617 14.910268473529914 0.25791692627636903
0.7450144795776317 12.986654304527798 13636.17440736401 15.612626892444958 0.26156821571539746
0.7679331473453435 12.986762514338068 11837.894336136273 16.345083436520827 0.2652730863348769
0.7911768284628592 12.988128527048024 10290.36105446908 17.10926222014518 0.2690363129910439
0.8147510499573126 12.990662685852573 8957.961609910355 17.90661804405397 0.2728603277798066
0.8386303450492406 12.9941320651613 7808.533210485868 18.738524565203715 0.2767462877401276
0.8628098373536415 12.99840690511088 6815.412329727467 19.606309310007184 0.28069452381377896
0.8872855939014652 13.003341992572626 5956.299494214203 20.51206581489053 0.2847114688603405
0.9120446679308467 13.008836695509945 5211.944550270679 21.457587874236257 0.2888001355654133
0.9370634191792063 13.014724534564152 4566.044583552838 22.44437009284372 0.29296053124587407
0.9623405585152971 13.020932239755686 4005.1141981548917 23.474416489968277 0.2971962856101801
0.9878646953705776 13.027321452040571 3517.2230337652277 24.55015912266486 0.30151358086640423
1.0136058720351824 13.03378166566673 3092.3922727368613 25.6735523945223 0.30591414010044227
1.039569366386434 13.040236323344576 2721.9499781401337 26.846532725829654 0.31039904125461737
1.0657184635205228 13.046562285496742 2398.7702549309106 28.07220813060901 0.31497710708193755
1.0920487442310214 13.052688755554813 2116.0191561036354 29.352646835109926 0.31964887605293424
1.1185459535115367 13.058526075335289 1868.942037170753 30.690577188498168 0.32441884771014295
1.1451756412597185 13.063983476292325 1652.432494370955 32.08942697340087 0.3292952701135796
1.171937486527014 13.069002103284918 1462.358207704278 33.55110516977793 0.3342756340746019
1.1987906209692205 13.073465885706888 1295.6547947575973 35.08016852636498 0.33937360553571455
1.2257371473758307 13.077329485682949 1149.2877748686667 36.67865824373017 0.3445860574862857
1.2527315263186805 13.080487120842328 1020.3961484351614 38.351598470365246 0.34992725772039046
1.2797722601333075 13.082936165363778 906.871568859753 40.1012392333697 0.35539385361867376
1.3068148553133678 13.084521735388748 806.9340525571529 41.93306125969689 0.3610004615233401
1.333851656872485 13.085234310672854 718.7419324479121 43.85050903845893 0.366748796358925
1.360857789344295 13.085035719787617 640.7070920941769 45.85832443409725 0.3726469124349401
1.38778820891703 13.083780576221995 571.9254975805686 47.96181239238338 0.37870461444000836
1.4146448000606646 13.081488345246228 510.9309686810444 50.16569492158484 0.3849273820392116
1.4413678345115613 13.078038661098875 456.9769645591275 52.47525498690745 0.3913225190385242
1.4679606132939758 13.073444718136367 409.10864076929397 54.896874909953716 0.39790154658671967
1.4943702261983425 13.067582362695617 366.61746668349844 57.43674229002765 0.4046735219025119
1.5205809009889295 13.060440785682793 328.9074581303365 60.10148263242497 0.4116482119795735
1.5465636873515245 13.051958370371876 295.3530721923683 62.898198767394106 0.41883615202232716
1.5722795816503161 13.042082598882596 265.52999517649 65.83451404290152 0.4262487086518431
1.5977035395276302 13.030757717062496 238.97248337556218 68.91861967426344 0.43389814844017455
1.6227904553805812 13.017942572287948 215.28839787793473 72.159326681325 0.441797712399836
1.6475433068798258 13.003605725360645 194.14492026175142 75.56612289786004 0.4499616971308779
1.6718920375176611 12.987676671323097 175.275879740067 79.14898064574906 0.45840447871387663
1.6958286946028927 12.970136918730876 158.39814352116343 82.91801222849783 0.4671390048025516
1.7192941791078709 12.950896076588243 143.3189956296943 86.88598714286306 0.4761869744336403
1.7422955654134873 12.929996141742532 129.80725263340537 91.06452890576398 0.48556292270318874
1.7647754583363369 12.907352811867675 117.70478071570169 95.46762240364066 0.4952883652673145
1.7867043982782322 12.882924002252885 106.847241655211 100.10903446759936 0.5053812259027758
1.808041333815298 12.856676422022685 97.10464557364067 105.00523302946256 0.51586699331571
1.8287549413546311 12.828547536895384 88.35202493032517 110.17275236406302 0.5267681950647771
1.8488349770755808 12.798589647398515 80.48336667515149 115.62916109588416 0.5381079925649099
1.8682219685042525 12.7666878927192 73.39658242446131 121.39476953892108 0.5499161116953366
1.886893801424865 12.732847247640775 67.02501282220274 127.49093731294201 0.5622221367515939
1.9048179579770987 12.697039927731284 61.27251532850522 133.940154363921 0.5750555602349314
1.9219619130151833 12.659233042037124 56.08768034825624 140.76796758710685 0.5884522192148667
1.9382773547116827 12.619353187367125 51.40351861047783 148.00210971476199 0.602450603359541
1.9537773645669192 12.577518969147672 47.17321461382561 155.67114929243152 0.6170867423200124
1.9683962209506154 12.533599921887369 43.35023641263438 163.808638670121 0.6324079385533965
1.9821141774171833 12.487611199222183 39.88848554256499 172.44825629019257 0.6484554680352036
1.9949069379704023 12.439544077380503 36.75468411110205 181.62943194736644 0.6652830076935264
2.0067455761225794 12.389394346008709 33.90951782984158 191.39407077655866 0.6829446864732883
2.017596044548899 12.337133049918481 31.335512601343044 201.7881842197941 0.7014997081049745
2.0274358245440354 12.28275766723528 28.99803741084249 212.86178298432813 0.7210109987353781
2.036250419695985 12.22630320920293 26.876181478986194 224.67015344675156 0.741548287294797
2.0439998861515156 12.167720594203152 24.94808212914917 237.27460368575703 0.7631892421546504
2.0506628128986297 12.10702754204143 23.192743736066383 250.7418729171397 0.7860161141738325
2.0562402188410798 12.04429354419692 21.597442843329993 265.1449643858403 0.8101168265069381
2.0606918000357854 11.979456552727642 20.146247534007376 280.56579796688885 0.8355917441484416
2.0640023426338736 11.912572431122298 18.82523748325955 297.09381406613625 0.8625469913476218
2.06616873749164 11.843683755836613 17.622526093286016 314.8294340049238 0.8911033084351239
2.0671661669111576 11.772804846035982 16.527372789214457 333.8820916899078 0.9213867766491395
