M[M_sun], R[km], Lambda[1], P_c[MeV/fm^3], rho_c[fm^-3]
0.24162668629717493 15.618656898711224 2160425.4255784233 3.5677272577965504 0.1711233750220791
0.2536374102481066 15.277454436864616 1723346.3354934277 3.784691396774475 0.17388657498694154
0.2660244614408944 14.981636199884703 1383300.7730314736 4.011131971077978 0.17666340421168308
0.2787924114458044 14.723963266584672 1116838.2022730187 4.247309057926488 0.17945265263270221
0.29193858553356306 14.498898011164426 906324.4425979272 4.493845906431174 0.18226085128988181
0.30546455137824047 14.301782097014422 739087.2987911651 4.750888868604109 0.18508352527712982
0.3193719694858 14.128707607091313 605463.1316324956 5.019135251840059 0.18792762375243247
0.33365990498210096 13.976568290280209 498114.14050326345 5.2987884678390955 0.19078936643036673
0.3483311700053769 13.842611619446984 411363.9408027966 5.590600721964063 0.19367552835668317
0.36338207353239943 13.724585495107629 340994.9525478643 5.894709403128391 0.1965806211592398
0.3788257599274616 13.62055772541993 283607.1481654717 6.211990663334319 0.1995125806398825
0.39464554709500316 13.529001426164399 236691.61735300842 6.542724496626988 0.20246798814111794
0.4108580333140156 13.448427565045064 198115.8399607265 6.887567864139877 0.20544978870456357
0.4274527021011557 13.377587352769357 166316.55395149512 7.2472452172310815 0.20846141708866317
0.44443534848080984 13.315420706468785 139997.1421206208 7.622047763783293 0.21149893838758893
0.46180281214452085 13.26102874917874 118153.66681270688 8.012859687387145 0.2145675165773836
0.4795551630267933 13.213565183195463 99964.0762272954 8.420414376126951 0.21766927402393882
0.49769693727549524 13.172374918028812 84782.60982436543 8.845196247686813 0.22080231345657775
0.516221024131622 13.136745284386716 72065.96584783701 9.28799100217723 0.22396881080613204
0.5351225663908913 13.106164448698227 61383.67659132258 9.74972246232305 0.22717227561845577
0.5544135139998987 13.08012837200664 52400.706414429704 10.23119824336151 0.2304140556657191
0.5740782136728578 13.058083019805496 44814.96053347276 10.73295112631592 0.23369164035660417
0.5941244513471398 13.039748387448803 38404.754215049375 11.256101750709501 0.23700966821074843
0.6145410257842996 13.02468633611609 32967.524323595295 11.801643675977633 0.24037050052146366
0.6353260917066565 13.01259336680049 28120.85751463824 12.370553363183566 0.24377576567377168
0.6564764293329977 13.003133899362759 24427.043648269384 12.963603810490532 0.24722437304591588
0.6779944256304001 12.99606944774019 21076.093176917075 13.581952321435422 0.2507192239011932
0.6998640242089306 12.991121721073567 18214.653365812872 14.226873592883663 0.25426386505245974
0.7220794955988237 12.988039651677502 15766.61672929315 14.899553992243538 0.25786027477495366
0.7446492271160555 12.986670607239597 13667.376645892413 15.601133032439769 0.2615094667272296
0.7675495127160628 12.986732550088297 11864.767031696121 16.332654619867334 0.2652111318011141
0.7907751377366634 12.988105041085813 10246.346112531566 17.095836109409568 0.26897102636099923
0.8143297567325305 12.99060957614427 8980.153960531658 17.892128170580758 0.27279157436625184
0.838191835111526 12.994056674037726 7827.742006614422 18.72303518149906 0.2766751220364271
0.8623529859436029 12.998311036550978 6833.016607437197 19.589619118366645 0.2806196454498409
0.8868075013152273 13.003236148792476 5971.829088350822 20.494094539079256 0.28463271594324513
0.9115479699921294 13.008719653975085 5225.830022294828 21.43824974313533 0.2887173352881102
0.9365491362436542 13.01460660124458 4578.8460689996355 22.423745635875 0.2928748689934111
0.9618060317574495 13.020793846914883 4016.1648391407107 23.452247026262448 0.2971062488308812
0.9873107411064788 13.02718960874725 3526.942807376926 24.526340374129155 0.3014189602857627
1.0130337301967434 13.033644966431023 3101.092719088773 25.648176525381995 0.30581620973431334
1.0389758380938596 13.040088918555822 2729.8539703614483 26.81928969042618 0.31029612197250406
1.0651101361870674 13.046427057074466 2405.597633730003 28.042970495079913 0.3148689443546171
1.091417838847944 13.052552050617082 2122.423092248647 29.321518178217143 0.3195368320012129
1.1178974354020763 13.0583932395584 1874.6291486218465 30.657186093245453 0.32430105845795
1.144513699172562 13.063869294766786 1657.3930243506659 32.053707109846755 0.32917200846337913
1.1712534260994822 13.068881209914633 1466.9131679086693 33.51299039115344 0.33414718334083926
1.1980954848072056 13.073356263680019 1299.8457288291845 35.03930381203596 0.33923847700387755
1.2250187438165738 13.077233189675926 1152.9267925502618 36.63516211915076 0.3444457457214479
1.2519973239175382 13.080417079618309 1023.6367412820896 38.30497082613571 0.3497795515652672
1.2790228335179417 13.082878271134073 909.83027004922 40.051601552331945 0.35524029121642076
1.3060506394582672 13.084479083134177 809.5703708259116 41.88020849898579 0.3608406796205523
1.333071193780187 13.085225963559473 721.1253201780733 43.793849052097684 0.36658037357707224
1.3600655039235332 13.085056410818005 642.9604603360048 45.797975872901546 0.3724714270167154
1.386984550974727 13.083840823085662 573.8796564283199 47.89751767235091 0.37852161091200875
1.4138180770337874 13.081558294707312 512.727937982736 50.09674955914368 0.3847341895357155
1.4405455826232088 13.078187507940203 458.5436908460576 52.40176836029913 0.3911207522949174
1.4671181927647856 13.073599111819757 410.55350579072444 54.818521869471226 0.3976906342932279
1.4935238668065205 13.067788009409718 367.91248564781756 57.35317136025608 0.40445284860438113
1.5197259991287446 13.06070217605058 330.0589370367505 60.01231365640959 0.4114171144539358
1.5457025379535376 13.052261980718042 296.4092700679212 62.80302031586003 0.41859391529615053
1.571413955821994 13.042440135709304 266.50316395431605 65.73288056237166 0.42599456162247357
1.596827964046944 13.031160942384119 239.83339871270715 68.81004834474348 0.43363125905545974
1.6219212699754424 13.018408536834551 216.06745367224633 72.04329395061869 0.44151718234969123
1.6466601318295282 13.004138424155343 194.8531143235862 75.44206065549783 0.44966655599636435
1.6710253294221908 12.98828245255479 175.91936108855379 79.01652694818611 0.4580947422116716
1.6949572674204072 12.970808432740316 158.99656862654663 82.77666421975023 0.4668141874901218
1.718445436561586 12.951674778330373 143.84465134090013 86.73462558877583 0.4758442149849342
1.7414452137326268 12.930837973674814 130.2961689256957 90.90309077918407 0.4852037822947867
1.7639300638618092 12.908264244286505 118.14854440304181 95.2945539336411 0.494908614399824
1.7858622312156942 12.88390743553848 107.24889800724432 99.92418500223029 0.5049823287759764
1.8072001237370239 12.85771708971469 97.47595410878348 104.80764484500031 0.5154474143918433
1.8279481838980414 12.829732830321335 88.68266306917279 109.96059426121421 0.526323344765285
1.8480247290355334 12.79981103979276 80.78560882172026 115.40200336344512 0.537638763075798
1.867439876949856 12.76803699427325 73.67980709021238 121.15141255009036 0.5494207260464645
1.8861316476904257 12.734297214145496 67.2762706260822 127.23001602747402 0.5616984698135871
1.9040668804668217 12.698553897436756 61.50499215649114 133.66091436435516 0.5745039132217934
1.9212351820702902 12.660858075023603 56.300129145515356 140.46828779116532 0.5878683290099058
1.9375947192915859 12.621146831176667 51.599265097171156 147.67997845538446 0.6018309678550988
1.9531089982073098 12.579371824928375 47.349686972377256 155.32565719387148 0.6164320002089945
1.9677610000310022 12.535571153545176 43.511106062207084 163.43669911968405 0.6317116418497517
1.9815206607913034 12.489727652319223 40.03751951882827 172.04844740225488 0.6477172646378261
1.994359148570648 12.441816080923303 36.889046452437334 181.19931065551503 0.6644995357964496
2.006217882945201 12.39173597366696 34.038476634148225 190.93084678794156 0.6821119431534152
2.0171075078979435 12.339597128474834 31.451535618742902 201.28877969777125 0.7006133143405779
2.026992349207431 12.285361747229423 29.104616386377483 212.3234614554899 0.7200683274815161
2.035848552477101 12.229029380199737 26.97337852397279 224.08913419510776 0.7405439816862242
2.043649903624614 12.17059750232779 25.035353235231437 236.64706247735182 0.7621186034037434
2.0503647755555665 12.110041945306342 23.27683518844392 250.06272605743146 0.7848712260819747
2.0559813043219752 12.047407753296897 21.674250706435267 264.41011614324884 0.8088939963374829
2.060490183633926 11.982724733620506 20.216893319702816 279.76989310100043 0.8342843155363872
2.0638629945083764 11.915997872778167 18.889287163748556 296.23159023978616 0.8611499142168183
2.0660858270261735 11.847247950502176 17.68100685681337 313.89291675675133 0.8896041285195657
2.0671438689875563 11.77651359962348 16.58122125787497 332.8650384496998 0.9197804222978705
