M[M_sun], R[km], Lambda[1], P_c[MeV/fm^3], rho_c[fm^-3]
0.24162668629717493 15.618656898711224 2160425.4255784233 3.5677272577965504 0.1711233750220791
0.25364467969516763 15.27725346573692 1723084.3977395967 3.7848325578206223 0.17388833449128344
0.26604074696665336 14.98125665084177 1382891.246591303 4.011428713687769 0.1766669901709969
0.2788170531963175 14.723470845026359 1116349.584566414 4.247771415103929 0.17945801527920313
0.2919721548932031 14.498364249833694 905880.348332333 4.494486004304143 0.18226797892825627
0.3055084466130265 14.301174010457117 738607.7875998268 4.751728433942562 0.18509259418511964
0.3194256028152865 14.128104480442783 605065.2050925012 5.0201804622624 0.18793846821397842
0.33372276013095287 13.975937455306505 497666.63697957154 5.300066831965428 0.19080223743592922
0.34840687907987744 13.841978048126158 410976.0450134592 5.592115424526758 0.1936901835206576
0.3634715183249816 13.72391597002019 340637.1685242267 5.896494463382243 0.196597386822903
0.3789252919309475 13.619948394017419 283282.07403706637 6.214067672717515 0.19953152046457515
0.3947577370259695 13.52840819907051 236389.26205937014 6.545091291681606 0.20248874173636344
0.4109842227717637 13.447820946299013 197841.15369078377 6.890270121558462 0.20547280226269857
0.42759213670018437 13.377039048096798 166066.4990100196 7.2503082821488345 0.20848675703973144
0.44458962336501806 13.314890501018857 139781.9698403018 7.625463163773227 0.21152612716760377
0.46197210068533684 13.26052939772365 117963.16643579133 8.016686976391322 0.21459712375206116
0.4797384245441729 13.213113824267241 99808.98388821383 8.424683383666455 0.2177013709926728
0.49789611571052683 13.171955215497654 84632.88924743373 8.84989122799245 0.2208363071200013
0.5164364611474489 13.1363647019928 71928.76310510235 9.293187909823324 0.22400539735994998
0.5353558156797569 13.105828410762754 61267.08244178649 9.75545651550859 0.22721153398177518
0.5546639129986605 13.079793030553803 52297.908474608455 10.237506799482853 0.23045606818851153
0.5743477689613261 13.057816107313725 44321.62197634255 10.739806772083424 0.23373565572604482
0.5944060573205547 13.039500243283861 38322.21904983714 11.263607549256431 0.2370565645758968
0.6148436546092445 13.024487958069942 32896.124081658425 11.809843944525275 0.2404203718360793
0.6356498555872322 13.01242641836945 28286.759956954193 12.379495182793748 0.24382871085119315
0.6568216910763641 13.003004168816503 24366.42304261112 12.973246120464095 0.24727948453570947
0.678354842854211 12.995968835288236 21024.113345434256 13.592431993612626 0.2507775719082037
0.7002439974317265 12.991048236678166 18168.888365163257 14.23824678716905 0.2543255651865269
0.722479421965044 12.988003522798458 15725.9658403204 14.91188047565461 0.25792544953925106
0.7450692701801358 12.986639246932477 13631.294426204196 15.61435618426052 0.261577054708074
0.7679915967554248 12.986761759020746 11833.978732257034 16.346953437106222 0.26528240781878276
0.791237768609714 12.988138544951392 10286.837533889448 17.111282315142063 0.2690461360289522
0.814812432441568 12.990676871266796 8954.218087665135 17.908798241381124 0.2728706726602324
0.8386968460514054 12.994140058309327 7805.972945063429 18.740855194641902 0.276756995776496
0.862879978157186 12.998403771409922 6812.610949936247 19.608820676547264 0.2807057907316083
0.8873629443061527 13.003357069810777 5954.020763350736 20.51477000632115 0.284723319046481
0.9121199737300442 13.008856081999483 5210.182964818826 21.46049780611609 0.2888125950510443
0.9371410263381748 13.014761249520596 4564.334101669639 22.447473643178533 0.2929734216270713
0.9624266770439479 13.020969872971518 4003.586102097559 23.477752607621383 0.2972098345752265
0.987948374426778 13.027348499271588 3515.655682811436 24.553743511256233 0.3015278199406886
1.013691642694003 13.033799182706671 3091.294859111662 25.677371179002705 0.30592887752520853
1.0396578263745937 13.040261396131207 2720.7215227285587 26.850632593463043 0.310414529816275
1.065810156354026 13.046581403099616 2397.5757294380955 28.076608273724123 0.3149933851246492
1.0921438555379062 13.052717832916795 2115.1618001189136 29.357331658370256 0.31966573854017527
1.118643332790513 13.058546922112908 1867.889688373333 30.695602626180847 0.3244365752672088
1.1452765871793498 13.06400471832872 1651.6723495298138 32.094776623024885 0.32931365098276844
1.1720403610383343 13.069012311878227 1461.667796386955 33.55684178460808 0.3342949670580493
1.198898111596544 13.073474213635613 1295.0562549354133 35.08631918328629 0.33939394409070645
1.2258445895581616 13.077339191344791 1148.7245151653112 36.685205093434945 0.3446071766100028
1.252841618973055 13.080496429264317 1015.4154801250503 38.35857905263482 0.3499492687138406
1.2798858268318318 13.082937087028602 906.4518570844948 40.108710828527265 0.3554169682379926
1.3069308318193347 13.084523163222824 806.5866612624 41.941016965279275 0.36102451282659975
1.333968166999142 13.085236472665626 718.4003599006651 43.85903805481785 0.3667741490064262
1.3609781611973941 13.085029353380472 640.4409931672019 45.86740888946943 0.37267332879713244
1.387909786114551 13.083773976414882 571.6390262529096 47.971491090717635 0.37873216313981944
1.4147603508832727 13.081464791011584 510.67543494924354 50.17607399744835 0.38495646535357897
1.4414917475067484 13.078021716562272 456.7484688970165 52.48631796318592 0.39135289382644584
1.468087290595274 13.073421295923087 408.8890095444348 54.90867077433145 0.39793329893218454
1.4944972780619783 13.067550996888993 366.4258112275686 57.44932399835721 0.4047067445444137
1.5207090953498696 13.06040180582805 328.7350368193173 60.114907464017875 0.41168300485823894
1.5466935043808208 13.051913699032491 295.19708026393465 62.912528715764815 0.418872622880212
1.572409649738745 13.042027319705998 265.38352157456836 65.84981624591173 0.42628697369420493
1.5978238419181388 13.030688549614876 238.84111726804807 68.93496688809587 0.43393833306221824
1.6229215025889088 13.01786830634851 215.1623545071811 72.17679780325855 0.4418399519875995
1.647674829802637 13.003524474394643 194.03891441943586 75.58480354343816 0.4500061379440084
1.6720220384070374 12.98759037531561 175.17212106477004 79.16886623814112 0.45845087157342135
1.6959591380701824 12.970031437166917 158.314111259865 82.9392967914803 0.46718791666629467
1.719439695903652 12.950816076464887 143.23435799000464 86.9087802485337 0.4762385896035629
1.7424161514110694 12.929839920422031 129.74615135616767 91.08884004140096 0.48561700603137364
1.764903719393325 12.907218048980647 117.64151307063739 95.49368577795187 0.49534555413022197
1.7868302162516025 12.8827776308799 106.79150820102525 100.13687277504101 0.5054412997625041
1.808167285433303 12.85651310549533 97.05613593469508 105.03499063186847 0.5159301836467932
1.8288763059063708 12.828373313318718 88.3000046278015 110.20458672561779 0.5268347522466008
1.848955697257833 12.798398523243245 80.43717830717861 115.66337418368038 0.5381786649982679
1.8683302019063142 12.766455151662155 73.36211585125453 121.43142360348558 0.5499907259385738
1.8870078326825817 12.732629259793393 66.98743526849425 127.5301746616304 0.5623007864048594
1.9049297169724904 12.696806971449387 61.23693915072368 133.98218270163218 0.5751385372232564
1.922069157527722 12.658982475087186 56.05464119128104 140.81310923899233 0.5885401723192422
1.9383813848906437 12.619087832443181 51.37499028904872 148.0506350230248 0.6025439442042692
1.9538754502430715 12.57723853626245 47.14979925527737 155.72319534554765 0.6171853748005508
1.9684899959708924 12.533297911886665 43.325553730442465 163.86452087913815 0.632512326984254
1.9822043000777083 12.487292082211006 39.86755783808758 172.5084892178161 0.6485666815503284
1.9949895284612524 12.439206952243167 36.73271571382193 181.69423395131315 0.665401045442246
2.0068234881550975 12.38904138899607 33.89227755877306 191.4638626914898 0.6830701522357882
2.01766887284362 12.336758332469998 31.31812386240296 201.86343027664216 0.7016332624334685
2.0275027390258713 12.282367994287284 28.982359210369495 212.94280607806536 0.7211527437904137
2.03631046942688 12.225890722732906 26.861410406072505 224.75770355603686 0.7416996197429692
2.0440515033732094 12.167290004597323 24.934910996811404 237.36910735094736 0.7633503795850546
2.050709214801723 12.106573562964684 23.181013247820292 250.8440179167922 0.786187993141309
2.0562788018035847 12.043818205818418 21.587987054343433 265.2557085453414 0.810301111222448
2.060721538467483 11.97896148198888 20.136177733092776 280.68556722171843 0.8357881936024121
2.064024032543901 11.91205833878557 18.81640811486673 297.2237551257778 0.8627575191472251
2.0661806734401758 11.843147637448274 17.61344018576951 314.9705903537436 0.8913292719862672
2.0671691135805403 11.772245805736281 16.518433400005517 334.03539437071765 0.9216289059877469
