M[M_sun], R[km], Lambda[1], P_c[MeV/fm^3], rho_c[fm^-3]
0.24162668629717493 15.618656898711224 2160425.4255784233 3.5677272577965504 0.1711233750220791
0.25364421273425536 15.277266019597231 1723221.865576728 3.7848228976576226 0.17388821408201185
0.2660406305565016 14.98125587518832 1383054.067461445 4.011408406012845 0.1766667447647302
0.27881616285237387 14.723469629515685 1116391.016291575 4.247739772790024 0.1794576482760458
0.2919703523362378 14.498381832979735 905865.6276604515 4.494442196943155 0.18226749112312451
0.3055058345340577 14.301218822551972 738666.6346062976 4.751670973968505 0.18509197350773582
0.31942185035235693 14.128138923158625 605135.2423976839 5.020108926317533 0.18793772600094008
0.33372090738338406 13.9759470834329 497677.65464431205 5.299979336585401 0.19080135650263344
0.34840168554212697 13.842021871045608 411003.3381554214 5.592011751161926 0.19368918045233327
0.36346542625082856 13.723950072055949 335703.37350126024 5.89637228272777 0.19659623927634
0.378917884126548 13.61999873997185 283301.2784485959 6.213925506081794 0.19953022407603713
0.3947502442986523 13.528458179007478 236407.07648440765 6.544929286575118 0.20248732117043772
0.410975874242576 13.447882987480266 197863.10739474368 6.890085150305102 0.2054712269698848
0.427584061298394 13.377047673118128 166077.0913683681 7.25009860884585 0.20848502246623052
0.4445789083390988 13.314925362087802 139803.2723658463 7.6252293678483385 0.21152426600171137
0.4619605764641652 13.260582319485591 117980.41979734755 8.016424979655431 0.21459509699549378
0.4797256751778278 13.213146469804562 99809.79796484219 8.424391142924973 0.2176991737508419
0.49788244518693636 13.171979993209451 84639.69471486137 8.849569820710132 0.22083397999395055
0.5164206617120206 13.136407033162234 71936.59604688786 9.292832134329112 0.2240028926782907
0.5353389595491771 13.105849750856587 61275.52247688314 9.75506395933339 0.22720884633440766
0.5546463666317423 13.079822459790755 52298.70324040243 10.23707490355601 0.2304531919301219
0.574328646058973 13.057854000388385 44729.33793417889 10.739337412955516 0.2337326422950544
0.5943870311449718 13.039514600030481 38327.77853412346 11.263093668018348 0.23705335383662193
0.6148229041564235 13.024504903281768 32901.20886358853 11.809282505132254 0.24041695734782878
0.6356274649200208 13.012456230733685 28059.59889484224 12.378882959778048 0.2438250858332884
0.6567979351905703 13.00301425411545 24370.42307449151 12.972585925269113 0.24727571113070074
0.6783291784867873 12.99598098339552 21027.164060155366 13.591714450717229 0.2507735768216034
0.7002184726044471 12.991055247634876 18171.852687077637 14.237468048862993 0.2543213404932102
0.7224526075973358 12.988004375404735 15729.589860706203 14.911036446989865 0.2579209868415416
0.7450402398730083 12.986641422164867 13633.803637126006 15.613450742823169 0.26157242669204933
0.7679610516177339 12.986748710600322 11836.047937772264 16.345974320494037 0.2652775271680419
0.7912065254612364 12.988140806152035 10288.726651433903 17.110224608898225 0.2690409927616578
0.8147796429783809 12.990673193178615 8956.043875918205 17.9076567052067 0.2728652561527085
0.8386629317210068 12.994126573209403 7807.444950325326 18.739634891880023 0.27675138911670677
0.8628432040589027 12.998410006629848 6814.400830791441 19.607505739159684 0.2806998914368378
0.8873244866039298 13.003362102973009 5955.366879698555 20.513354104927433 0.2847171143470347
0.9120798609563753 13.008853312797788 5211.003955765939 21.458974177888745 0.28880607131619773
0.9371005786270832 13.014741977952461 4565.225477067829 22.445848635280953 0.2929666722694039
0.9623844675377579 13.020944946203652 4004.461103118293 23.476005825823947 0.2972027403753277
0.9879042037856546 13.027334438934995 3516.527417834333 24.55186673280987 0.30152036439086977
1.0136466198947351 13.033788542254362 3091.916890986163 25.67537166903774 0.30592116103116984
1.0396118128380485 13.04024587077586 2721.4258220371185 26.84848590565496 0.31040642001628915
1.0657629790285383 13.046571113912147 2398.2892143859626 28.074304358509686 0.3149848619404519
1.0920942591679828 13.05270560841092 2115.720855395926 29.354878681702107 0.31965690933030527
1.1185916359896404 13.058540491663162 1868.4359220486879 30.692971299642767 0.32442729309234003
1.1452224214977382 13.063993313868552 1652.0385818614393 32.09197553524466 0.3293040267210516
1.1719860754174838 13.069005864024149 1461.9764759015266 33.553838076459385 0.3342848442518929
1.1988426110379118 13.073461322244874 1295.4745352600116 35.08309867653416 0.33938329474795853
1.225789202250293 13.07733226980407 1149.007154216072 36.681777134360225 0.3445961185446644
1.25278455424132 13.080491392049066 1020.1577120735657 38.3549297285479 0.34993777734213893
1.2798256900808316 13.082933998032805 906.6319802032077 40.10479865745054 0.35540486528765314
1.3068695543125435 13.084523381174838 806.7120216564692 41.936851305658195 0.36101191940647054
1.3339081224974527 13.085232598890896 718.5766457914686 43.854572198574445 0.36676087417209996
1.3609158527993985 13.085032981232 640.612742401371 45.86265219475916 0.37265949697506306
1.387846538148923 13.08377351910435 571.7982133505099 47.96642323853002 0.3787177383965552
1.4147039370031225 13.08148374200016 510.79849549145877 50.17063941203943 0.38494123704635946
1.4414272581970478 13.078029276378237 456.8670337566216 52.48052527250008 0.3913369892681562
1.4680209360469398 13.073433976306504 408.9959479344704 54.90249432665159 0.3979166730458403
1.4944301034569325 13.067567604149836 366.5103014317536 57.442736064028885 0.40468934876815427
1.5206424429620726 13.060423584061718 328.8247724235495 60.107878049394486 0.41166478685912383
1.5466257944742154 13.051937528753141 295.2850858449933 62.905025358586364 0.4188535262396495
1.572341418949973 13.04205593337528 265.45775871901395 65.84180379005075 0.42626693756197365
1.597765990286439 13.030728900491805 238.91084148941124 68.92640723534959 0.4339172917756748
1.6228527651176485 13.017908095866627 215.23343129078955 72.16764963958434 0.44181783465226976
1.6476050076217639 13.003570304545338 194.08693631683948 75.57502203670394 0.44998286797129294
1.6719539061170146 12.987633283486407 175.22687098093894 79.15845378530366 0.45842657944007775
1.6958905365150465 12.970085768272511 158.35293229915476 82.92815179244779 0.4671623054909774
1.719371295524625 12.950876439893188 143.2754138526752 86.89684532600698 0.4762115628761335
1.7423522605839477 12.929933868657615 129.7713854199349 91.07611022777586 0.4855886868817338
1.764836618904 12.907288484747955 117.67413149836638 95.48003842936971 0.49531560880012787
1.7867636595042373 12.882854809550686 106.81916052854393 100.12229600796474 0.5054098437315486
1.8081018564796139 12.856598352909927 97.0841379162276 105.01940885097653 0.5158970957024085
1.8288121236083288 12.82846375658304 88.32742553308039 110.18791747427608 0.5267999012761956
1.8488923293887891 12.7984991731036 80.46330720628188 115.64545933437483 0.5381416591015419
1.8682692186561094 12.766560706509964 73.38680335510264 121.41223055883232 0.549951655933126
1.886948403791063 12.732742221334401 67.00825824399637 127.50965914516281 0.5622597113194769
1.904872405342808 12.69692795380013 61.25478990338586 133.96017546007806 0.5750950880952406
1.9220135311012856 12.659113333428902 56.07316951831806 140.78947172618638 0.5884941174554044
1.9383270360288403 12.619225972988753 51.390959433252036 148.0252256706744 0.6024950680508291
1.9538245278259607 12.577383396512333 47.15970770003372 155.69594236656656 0.61713372767732
1.9684401411889716 12.533456818588085 43.33696852271246 163.83525910392336 0.6324576657449704
1.982156373911772 12.487458203126224 39.87830741588071 172.47694918520406 0.648508446328626
1.9949466065467791 12.439384524319863 36.74441644532454 181.660301315434 0.6653392366754894
2.006782742567821 12.389226391057607 33.90167103071007 191.42731707365854 0.6830044537403142
2.017631636730736 12.336954309030729 31.3271957570295 201.82402857189342 0.7015633282941971
2.0274683951655024 12.282569940386129 28.990925401977076 212.90037919686142 0.7210785205000672
2.0362795745762727 12.22610754227647 26.869514504633333 224.7118587506566 0.7416203759054594
2.044024754520251 12.167514943800823 24.94224889491787 237.319621253895 0.7632660012437099
2.050684522881394 12.106811312821563 23.187337599646856 250.7905329612195 0.786097998332991
2.056257689875515 12.04406806088015 21.592856615414426 265.1977179155724 0.8102046114453278
2.060706492595113 11.979219979219778 20.141731285169122 280.62285047631565 0.8356853235427568
2.0640115343732734 11.91232671435141 18.82080437461229 297.15571174655605 0.8626472766807973
2.0661753047335565 11.843428443718484 17.618504573527602 314.8966738798346 0.8912109462497905
2.0671694044406435 11.772539997789002 16.522725873372863 333.9551172273359 0.9215021146522684
