M[M_sun], R[km], Lambda[1], P_c[MeV/fm^3], rho_c[fm^-3]
0.24162668629717493 15.618656898711224 2160425.4255784233 3.5677272577965504 0.1711233750220791
0.25364128992277907 15.277385479344321 1723188.631085537 3.784787677046562 0.17388777507408598
0.26603635993298935 14.981338896496139 1382697.0301389333 4.011334365574485 0.17666585002972832
0.2788088930277984 14.723649736117673 1116577.49805208 4.247624407945774 0.17945631021770359
0.2919630505618384 14.498483129716734 905993.1100592765 4.494282480767818 0.18226571264644395
0.30549526362352936 14.301354069397938 738764.3156041335 4.751461483750639 0.18508971061356477
0.3194088683054886 14.128284587331443 605210.9487662315 5.019848119257658 0.1879350200270316
0.3337045356870626 13.976115806873246 497802.73214720265 5.299660346821257 0.19079814480500826
0.34838316236787076 13.842171812905416 411094.2605148633 5.5916337826245615 0.1936855235027587
0.3634430928399864 13.72412324352289 340738.222935457 5.895926844402486 0.19659205562532414
0.3788940513729609 13.6201339105216 283378.8060573808 6.213407208094436 0.19952549782246384
0.3947227812927978 13.528586306334619 236478.0899802278 6.544338667419344 0.20248214223832897
0.41094424558377 13.448030773775322 197932.21244983445 6.889410808892789 0.20546548399544112
0.42754934491441166 13.377178966702855 166131.94674844437 7.249334217933579 0.2084786988561099
0.4445416175252789 13.315056029607003 139860.81841880965 7.624377040471233 0.21151748092774492
0.4619184303752845 13.260682727638557 118027.87986907133 8.015469850237457 0.2145877082972568
0.4796796249600855 13.213273030180677 99852.53599476775 8.423325764356878 0.21769116359338178
0.49783266366189605 13.172092361437707 84679.89197760387 8.84839812148427 0.22082549639092675
0.5163670650937741 13.136497066092474 71969.07723797875 9.291535154097424 0.22399376185660233
0.5352819190446346 13.105923960911307 61304.62179479444 9.753632905256906 0.227199048580699
0.5545839347363841 13.079887469364316 52323.66096355668 10.23550044855153 0.23044270667398895
0.5742619286401432 13.057924539535664 44350.65965685012 10.73762639816354 0.23372165705008385
0.5943153036753941 13.03958530258676 38346.76262555582 11.261220364282428 0.23704164940098002
0.6147474607324972 13.02456517734165 32919.04813271165 11.807235847195283 0.24040451025279863
0.6355456478029012 13.012462130980936 28310.513606659377 12.376651192106143 0.24381187137129928
0.6567122166385311 13.003053232562417 24189.994407598646 12.970179296405073 0.24726195582699848
0.6782399520993124 12.996015084518254 21040.589614335102 13.589098788904119 0.2507590135174057
0.7001221448434106 12.991086605468194 18182.593712539117 14.234629331068902 0.2543059403106336
0.7223530813882064 12.98799801957222 15739.649035981392 14.907959749248379 0.2579047191808123
0.7449353135899435 12.986655089657143 13642.54351911341 15.61015019915922 0.2615555565021763
0.767850676697436 12.98675627637418 11843.116023346398 16.34240523879373 0.2652597361909225
0.791090574626699 12.988122756358381 10295.451671593717 17.10636907892951 0.26902224462501195
0.8146604301553574 12.990650758493109 8962.352090579017 17.9034956294048 0.2728455121455597
0.8385369754112325 12.994116207023986 7812.442249016535 18.7351867253594 0.2767309520930877
0.8627128399828351 12.998384663041158 6819.387538548536 19.60271265080626 0.28067838787223864
0.887181075055784 13.003325120110006 5959.715433494384 20.50819302872259 0.28469449771086763
0.9119394020295505 13.008817872235948 5215.004774851813 21.453420468434057 0.28878229194059474
0.9369521785506336 13.014700936515357 4568.598459184486 22.439925425779236 0.2929420706292979
0.9622262009814736 13.02089826581222 4007.484653555375 23.469638792444382 0.29717688196094333
0.9877454128686649 13.027292582611707 3519.289429777228 24.545025910601115 0.3014931890517252
1.0134819672799538 13.033753827946066 3094.36722422133 25.668083535852375 0.3058930347215923
1.0394414472256064 13.04020768757441 2723.693494889887 26.840661373144957 0.3103768603414264
1.0655903562925324 13.046537787614394 2400.1709915880942 28.06590680550352 0.31495379574034615
1.0919132406340601 13.052668534032767 2117.441445835538 29.34593786797967 0.3196247278905921
1.1184059274983902 13.058500387202814 1870.1508914592312 30.683380494496134 0.32439346090571664
1.1450324230707478 13.063959016557188 1653.367601473029 32.08176603805553 0.3292689478943048
1.1717901369707704 13.068971784027093 1463.4058443190177 33.542890146972844 0.3342479486007445
1.1986412396235302 13.07343818783866 1296.5779512973627 35.07136065086856 0.33934448027926833
1.2255832411555385 13.077299958746805 1150.0222903291192 36.66928307171386 0.34455581463260654
1.2525734677343612 13.080474443399648 1021.106506797737 38.341548155624736 0.34989542052654055
1.2796106649431132 13.082916171572133 907.5327995553099 40.09053997115569 0.3553607536757762
1.3066510515222722 13.084516908974193 807.4897299047446 41.921668831955714 0.36096602048833326
1.3336827291201496 13.085228511103672 719.2299299684414 43.83829574244666 0.36671249212692497
1.3606876804391999 13.085042698426472 641.2237492891503 45.84531585650873 0.3726090852583944
1.3876146275027608 13.08378841335916 572.3408480986645 47.9479529807396 0.3786651660805547
1.4144674043707177 13.08150840727379 511.30749941225986 50.15083273481491 0.3848857365540354
1.441196019150543 13.078084913334559 457.3065669462358 52.45941361408797 0.39127902456401137
1.4677804102684906 13.073480239949351 409.4070190265321 54.879984221762705 0.39785607989183347
1.4941867903080157 13.067627504390982 366.88274133358277 57.418726477290356 0.40462595023104536
1.5203971353265626 13.060494295546034 329.1637137173316 60.0822596976518 0.41159839226805406
1.5463785353145172 13.052024229951407 295.5808721414642 62.87767996559053 0.41878393004041997
1.5720933464346798 13.04215836303265 265.7269087513667 65.81260326600318 0.42619391805694407
1.5975162746154505 13.0308474839367 239.16535974482895 68.89521277285776 0.433840609736892
1.622603037393053 13.018047398544416 215.4550233079597 72.13431071654747 0.44173723179396956
1.6473547006114782 13.00372359221764 194.2935644652503 75.53937531546892 0.44989806526624204
1.6717032409266568 12.987810542728445 175.40829449270606 79.12050799272112 0.4583380523401107
1.6956431112228578 12.970282788184745 158.5287253703968 82.88753677753489 0.4670689723049977
1.7191087285173843 12.951054747899185 143.43014414197515 86.8533520533236 0.47611307201260294
1.7421114741274526 12.930176514994647 129.92059504176373 91.02972059207526 0.48548548701771105
1.764596846394162 12.907558308017895 117.79794423650326 95.43030563171547 0.4952064839372804
1.7865228536712638 12.88313714757267 106.93465706294216 100.06917674734707 0.5052952146716495
1.8078636377211335 12.856904522387971 97.18381559451029 104.96262772832907 0.5157765208694487
1.8285890933808309 12.828821355380764 88.42733129174152 110.12704242014934 0.5266724129252119
1.8486626068347924 12.798857848200603 80.54738817717167 115.58017767234638 0.5380068097147609
1.868053911243007 12.766979990008258 73.46067207025214 121.34229185173122 0.549809286355145
1.8867298728003534 12.733161722461373 67.07824876485853 127.43467080937299 0.5621092103278892
1.9046597650495154 12.697372688527963 61.321474814269465 133.8799834975832 0.5749367642618924
1.921807928471936 12.659589886426428 56.13208737445993 140.7033401793652 0.5883263004480249
1.9381364951208973 12.619761088178391 51.44664580329136 147.93263885458293 0.6023169727035957
1.9536312961357953 12.57790784712636 47.21342192123816 155.59663876455835 0.6169455374110837
1.9682610889794185 12.534030337467641 43.385037727407045 163.72849260012583 0.6322580058921909
1.9819873468312048 12.488066231331247 39.92113793266617 172.3620272248426 0.6482962554941258
1.994787253117676 12.440025267894061 36.78253395180137 181.53666290748046 0.6651140276010585
2.0066286500222486 12.389885516678804 33.94176286010699 191.29415950987874 0.6827650747909224
2.0174932978731057 12.337667733635618 31.360593570429316 201.6804663831371 0.7013085195703967
2.0273423743089554 12.283323916140718 29.02040029256954 212.7457964716292 0.720808087270664
2.0361660574296425 12.226894180792998 26.897691743920515 224.54482505543706 0.7413316541867642
2.0439234974548595 12.168343529813528 24.967085494691883 237.13932301083148 0.762958576176808
2.050598512351079 12.107676624249486 23.210002146278775 250.59536929866732 0.7857691421886052
2.056181424961928 12.044948916908739 21.614368957593133 264.9864402242807 0.8098530330920433
2.0606503107805634 11.980163474791228 20.16068187804391 280.3942747786783 0.8353102722124084
2.0639787027917875 11.913322203754053 18.839529930788316 296.9078160138226 0.8622456411755353
2.0661514171174535 11.844451007807141 17.63528372884575 314.6273855705538 0.890779868631566
2.0671625096333313 11.773602237293716 16.538793393082006 333.6626606789251 0.9210402028953177
