M[M_sun], R[km], Lambda[1], P_c[MeV/fm^3], rho_c[fm^-3]
0.24162668629717493 15.618656898711224 2160425.4255784233 3.5677272577965504 0.1711233750220791
0.25364488716678396 15.277253155415814 1723254.6141265256 3.7848367759673716 0.17388838706844775
0.26604112826345594 14.981243225587084 1382993.051485361 4.011437581133975 0.17666709732885108
0.27881808343806147 14.723449662132689 1116361.6405142606 4.247785231910745 0.17945817553334073
0.2919732402441072 14.49835555277763 905801.5590702996 4.494505133098829 0.18226819193182467
0.30550994951812016 14.301149568926332 738570.6454218369 4.751753524309813 0.18509286520897164
0.3194284885457975 14.128047781693871 605051.3534967438 5.020211699090688 0.1879387923081282
0.3337244862009284 13.975928898037626 497642.49816683435 5.300105037720347 0.19080262210448645
0.3484090628860737 13.841916848076778 410947.0359582223 5.5921606946668225 0.1936906215217161
0.36347345585761487 13.723915951343455 340634.2226946286 5.89654781506455 0.19659788791319366
0.37892803085840265 13.619933395142615 283266.45879402047 6.2141297516695655 0.19953208654986992
0.3947612789319637 13.52838892933647 236379.6075940238 6.545162033517437 0.20248936204669615
0.4109879527935962 13.447827306542482 197839.80270926683 6.890350892075189 0.20547349013831304
0.4275967485002686 13.377008659794503 166057.3970511219 7.250399839401445 0.20848751446941818
0.4445934970263453 13.314881821812394 139780.44581064247 7.625565254769568 0.21152693987757895
0.46197717311029185 13.260514773207083 117959.93956721268 8.016801382012426 0.21459800877203336
0.47974370000335415 13.213103110048811 99790.69770756626 8.424810996166386 0.2177023304602733
0.49790091390477875 13.17194986817641 84624.30616715741 8.85003157689563 0.2208373233060268
0.5164421602886548 13.136361336277778 71928.02788132284 9.293343266635372 0.22400649108159215
0.5353627244983251 13.105805056097765 61263.0528445127 9.755627933752177 0.22721270760180773
0.5546705168424791 13.07979470352681 52294.51815859431 10.237695396704233 0.23045732417243392
0.5743556051029567 13.057823979665939 44720.54351946502 10.740011728853936 0.23373697161199916
0.5944135715106977 13.039503763186465 38321.17273441187 11.263831948148662 0.23705796662423625
0.6148534880810402 13.02447656096445 32894.1358992549 11.810089111389832 0.24042186285966768
0.6356593059131245 13.012416423128215 28284.91852660182 12.379762526206585 0.24383029381137822
0.6568317375360192 13.003015134520112 24364.247586395977 12.97353441272815 0.247281132296071
0.6783650977634853 12.99597549635158 21022.54320890231 13.592745328994459 0.25077931647566215
0.7002558682188829 12.99104457139118 18167.25834558811 14.238586845992698 0.25432741002224174
0.7224917746148026 12.988001752224882 15724.878408702383 14.912249046219408 0.2579273983107609
0.7450817132271174 12.986648115922973 13630.104541157474 15.614751573273633 0.26157907567443717
0.7680046224163545 12.986761136803251 11833.19973108167 16.34738099959095 0.26528453911053274
0.7912516432633018 12.988142639476916 10286.918807180991 17.11174419729992 0.2690483820054795
0.8148301425854106 12.990659842770173 8953.962548818996 17.9092967317189 0.2728730379612414
0.8387130381802443 12.9941306379462 7756.014457696567 18.741388082022215 0.27675944411828524
0.8628958195385514 12.998413550957997 6769.79722446142 19.609394890668103 0.2807083668682306
0.8873794451297234 13.003371701675722 5953.509755797839 20.515388311326056 0.2847260285548822
0.9121367016000351 13.008862619878254 5209.497743476289 21.46116315545016 0.28881544388421626
0.937159942746478 13.014751170834735 4537.652483086166 22.44818326502034 0.29297636899220475
0.96244497254639 13.020960509099725 4003.1650221728905 23.478515408403755 0.2972129325358539
0.9879663624279329 13.027350397455379 3515.3202763237027 24.554563082025613 0.30153107570628684
1.0137105115873535 13.03380761714759 3090.686864661467 25.678244347021614 0.3059322472487562
1.0396762968443234 13.04026433596915 2720.381756827569 26.851570034870594 0.3104180713011081
1.065831353538652 13.046587751096633 2397.316004275411 28.07761437741074 0.31499710713967344
1.0921657503550248 13.05272289051503 2114.918264165247 29.35840285816046 0.3196695942017
1.1186665181621889 13.058551958943152 1867.6815871349393 30.696751712966257 0.3244406287453033
1.1452996103942334 13.064006873144345 1651.5005347613137 32.09599984601344 0.3293178538564745
1.1720625763359709 13.069022455333943 1461.4672798901302 33.558153494193974 0.33429938765459666
1.1989227168974814 13.073472775186625 1294.9382053072793 35.08772557154086 0.33939859463539157
1.2258697902069036 13.077344216205153 1148.6025940100503 36.68670207863937 0.3446120056525439
1.2528674562809676 13.080504110269127 1019.7259153361282 38.360172710860006 0.34995428699081316
1.279912251396428 13.082943397870933 906.3716911185229 40.11041927622946 0.3554222536044277
1.3069565340742524 13.084524960880085 806.5038687281373 41.942836115378725 0.3610300123929504
1.3339963524909164 13.085239332964935 718.3153481060457 43.86098830631472 0.36677994616247067
1.361004531510576 13.085031694076845 640.3174966676161 45.869486155378574 0.37267936920422096
1.387936843344112 13.083767531617038 571.5703545511445 47.97370424507818 0.37873846249155135
1.414789249651896 13.081458749571311 510.6221160846661 50.17844731233573 0.3849631156434381
1.4415197446815247 13.078017900066492 456.69141100678837 52.488847670474165 0.39135983945485997
1.4681161047120603 13.073415577076664 408.8395135912904 54.91136807716187 0.3979405595863047
1.4945262031536908 13.067544797691504 366.3770982616428 57.45220100743231 0.4047143414334646
1.5207384733489675 13.06039418747802 328.71623597496693 60.11797727886763 0.4116909608385322
1.5467250049533074 13.05189989696777 295.16251306847323 62.91580551412225 0.4188809625925487
1.572439459360188 13.042016611530155 265.3524108041921 65.85331538210103 0.42629572371499763
1.5978532595377344 13.030675907211933 238.80896662840456 68.93870500144685 0.43394752206981946
1.622950819717916 13.017853767427818 215.14241209539583 72.18079293768548 0.4418496109455013
1.647703035726921 13.003507536640969 194.0120684887779 75.58907527945969 0.4500163003027707
1.6720523322920025 12.987566150133533 175.15172334713196 79.17341352865905 0.45846148035017525
1.6959911698143222 12.970006799184862 158.29838518397924 82.94416401091043 0.46719910152236943
1.7194691441681567 12.950790687586096 143.2163791944662 86.91399245682568 0.476250392690889
1.7424505491820956 12.92984048997616 129.72343742443294 91.09439940791785 0.4856293735755445
1.7649327876288512 12.907184540274198 117.62575923107437 95.49964586879888 0.49535863190036394
1.786859272188801 12.882745663310965 106.77952429693984 100.14323878017086 0.505455037325393
1.8081962693558573 12.856477112758682 97.04342857044321 105.04179556837306 0.5159446339437245
1.828909077182297 12.82834437197718 88.29358260193668 110.21186660750986 0.526849972543132
1.8489827604830484 12.798354779514463 80.42859637179035 115.67119807622771 0.538194826460453
1.8683562733587447 12.766408748812305 73.3527273928191 121.43980574380959 0.5500077889045617
1.8870329287502317 12.732580967817803 66.97737120678921 127.53913024447303 0.5623187102948718
1.90495432151944 12.696753989756784 61.230328658833855 133.9917939387318 0.5751575127895536
1.9220931847106293 12.65892680383622 56.047310885849015 140.82343250054063 0.5885602859584763
1.9384053607234697 12.619026460152279 51.367763263296744 148.06173214269796 0.6025652900660766
1.953899126533985 12.577171791741662 47.14369965524113 155.73509767747356 0.6172079309109906
1.9685120915778038 12.533233113851958 43.321993934511646 163.87730056576922 0.6325361995450874
1.9822244634049644 12.48722057250579 39.862345806386095 172.5222639558566 0.6485921150980215
1.9950087232709133 12.439127368501813 36.72881744997204 181.70905368429274 0.6654280397913556
2.0068422245586373 12.388959029571074 33.888565386438856 191.47982367767653 0.6830988454920793
2.017685457051205 12.336672277866679 31.314190881825773 201.88063870146397 0.701663805690056
2.0262085920187514 12.285349788427931 29.179673486853634 213.47958279790257 1.2798495501931644
