M[M_sun], R[km], Lambda[1], P_c[MeV/fm^3], rho_c[fm^-3]
0.24162668629717493 15.618656898711224 2160425.4255784233 3.5677272577965504 0.1711233750220791
0.25363620645946383 15.277456515030936 1723462.043065247 3.784677431915734 0.1738864009217142
0.2660230209823491 14.981658630123976 1383348.3780925719 4.011102615613101 0.17666304946821446
0.27879017375225423 14.723979730433465 1116882.056585036 4.247263320212261 0.17945212214414247
0.2919350888263163 14.498946436908852 906379.5408993375 4.493782587824526 0.1822601462225013
0.3054609779405428 14.301816095310304 739154.2188687052 4.750805820941846 0.18508262820387852
0.31936640010826145 14.128771632995193 605517.0610186827 5.019031865003768 0.1879265510741023
0.33365485988677884 13.976620212919103 498115.6903479754 5.298662022059572 0.19078809333117844
0.3483236058960416 13.84262984040176 411398.7865814561 5.590450903214843 0.19367407881907076
0.3633739495401755 13.724637006338323 340999.5536960018 5.894532848053848 0.19657896291661667
0.37881576311409254 13.620622974973024 283639.33619294164 6.211785237818695 0.19951070740652843
0.39463430527431365 13.529076667159321 236721.79298643628 6.542490415623154 0.20246593556694226
0.410846380094104 13.448478039918319 198142.85268837473 6.887300612079231 0.20544751267386713
0.4274404805326374 13.377608438601243 166328.0113326429 7.246942289215707 0.20845891104282577
0.4444212253038224 13.315453740415215 140023.73212992138 7.6217099986106325 0.21149624955963225
0.46178713128632776 13.261065106824425 118170.96103493171 8.012481198067974 0.21456458865650432
0.4795364111741413 13.213635371360203 99985.0765448921 8.419992214826465 0.21766609996112984
0.4976772996220226 13.17241294464683 84793.0502528584 8.844731972239172 0.22079895190396717
0.5161976645652089 13.136778288419471 72081.24600027058 9.287477105023166 0.2239651929381297
0.5351000325722992 13.106193397647424 61399.836316853274 9.749155463398631 0.22716839364368918
0.5543912508025369 13.08013434115721 52408.9255647149 10.2305744513303 0.23040990145413331
0.5740528110271074 13.058110675795422 44825.38330241979 10.732273252180384 0.2336872881946749
0.5940969178568473 13.039765007584478 38412.94378164701 11.255359608679733 0.2370050312939164
0.6145114485710803 13.02471285881852 32974.52137745504 11.800832887363745 0.2403655695739203
0.6352937377609694 13.012611171808597 28361.268947543806 12.369669276355662 0.2437705309300618
0.6564422431410125 13.003141139563411 24430.805678705867 12.962650484948574 0.2472189242280476
0.6779587850348658 12.99608120518619 21081.553502073984 13.580916231785261 0.25071345523160615
0.6998264323249775 12.991123922979625 18218.82034875464 14.225749190947042 0.25425776511707715
0.7220400847536402 12.988045947843046 15771.320585801055 14.89833537366002 0.25785383147914087
0.7446067429886205 12.986667815941768 13670.782372399679 15.599825793799702 0.26150278499042723
0.7675058027474504 12.986742104775598 11869.213861308283 16.331241075384032 0.265204085636394
0.7907286194888278 12.98810892519754 10318.07728912793 17.094309174162227 0.268963601391955
0.8142821030227485 12.990588729346833 8982.601252895996 17.89048029031656 0.2727837552922273
0.8381427908828931 12.99405286833669 7830.952868929882 18.7212736615442 0.2766670287636694
0.8623008090394363 12.998301092293266 6835.008153804187 19.587721078333466 0.2806111301412432
0.8867527808505252 13.003223935117878 5973.722302686301 20.49205085613592 0.28462376020770935
0.9114908238535205 13.00871169147301 5227.477229153961 21.436050670261448 0.28870791949488717
0.9364887547128236 13.01459154967278 4580.086913455645 22.421400327539608 0.29286512791780195
0.9617445601017884 13.02078095510687 4017.3582729321924 23.449726083269816 0.297096010532343
0.9872465802508171 13.027172629475004 3528.1560484214215 24.52363194724223 0.30140820099149157
1.0129672355191905 13.033628012232692 3102.3510625527947 25.645291090466614 0.3058050742852715
1.0389079395369991 13.040075212868786 2730.7382154608113 26.8161920139798 0.31028441950868685
1.065040763884826 13.04640765869774 2406.4624190593463 28.03964609781615 0.3148566459635797
1.0913464798906645 13.052526464165187 2123.085443238719 29.317978832074495 0.319524092528269
1.1178237091300027 13.058377160457853 1875.235978728308 30.653389594594397 0.3242876660629514
1.1444380946577108 13.06384617989197 1657.9620625951713 32.049635672726026 0.3291579278499876
1.1711750618936114 13.06886353017128 1467.4199769730924 33.50865700364008 0.3341325793781283
1.1980095049532657 13.07333074621869 1300.3026702332847 35.03465788712271 0.3392231141897025
1.224937466442942 13.07722016975158 1153.3555570013161 36.63021712492151 0.34442979393553297
1.251918529111325 13.080415238476693 1024.0286899246635 38.29966994534167 0.34976275953698027
1.2789367946515258 13.082871702333978 910.2200050633814 40.04595858804622 0.35522283377011327
1.3059634755079619 13.08448272253128 809.936672697397 41.874200157511765 0.36082251549401656
1.3329829122157384 13.085223201799133 721.4114083647027 43.787408066899125 0.3665612276380299
1.3599752180430604 13.085055016481572 643.2243061618276 45.79111572368973 0.37245147863468825
1.3868917297910546 13.083837046338793 574.0539540150045 47.89020909937729 0.37850080835406713
1.4137257737131808 13.081569576821177 512.8833687441378 50.088912543163836 0.384712229353283
1.4404514076083723 13.078198038887255 458.7238901656827 52.393415326095216 0.3910978179926049
1.4670226597498826 13.073617885032617 410.7093527827841 54.80961588613391 0.39766666098778997
1.4934264597866551 13.067814696050007 368.0563280641957 57.34367250814607 0.4044277664014034
1.519629652932999 13.060734965903194 330.19114028202176 60.002178759841314 0.4113908480368008
1.5456049087399866 13.05229804713505 296.5310269707182 62.79220264913695 0.4185663834742976
1.571316065677167 13.042480484965724 266.61953232835117 65.72132952621344 0.425965676834602
1.5967289411388637 13.031209319740922 239.9261796573176 68.79770910977587 0.4336009268227891
1.6218221503776913 13.018462729662176 216.15108496733671 72.03010706419586 0.44148530067383196
1.6465608166501793 13.004198259911135 194.9286676522633 75.42796160766194 0.44963301469568645
1.67092620504887 12.988352804096117 175.99608989103038 79.00144569204059 0.4580594221893095
1.6948575696620864 12.970883732242708 159.06523471552532 82.76060154809963 0.46677727551745085
1.7183473581440452 12.95175929108273 143.9042056003974 86.717425480215 0.47580526520165833
1.7413477406460676 12.930933521070195 130.3519666102012 90.8847460687579 0.4851629720665337
1.7638326258200472 12.908366372497241 118.19811298262428 95.27488822580094 0.4948654634456835
1.7857670851540368 12.884016971883488 107.29641453588259 99.9031811834663 0.5049370034463085
1.8071061502737868 12.857837321124018 97.5161880070791 104.78517904761756 0.5153996831498717
1.827854817952772 12.829860992702203 88.7238712473079 109.9364833898367 0.5262727804480836
1.8479339551713923 12.799952477510537 80.82386512774775 115.37619450882256 0.5375854508880988
1.867350302458557 12.768189139658233 73.70443924488953 121.1237640302787 0.5493644437921802
1.886045244539663 12.734462009027578 67.30826517794662 127.200372901608 0.5616389762965006
1.9039823762669579 12.698731271559991 61.52928982161902 133.62910703113303 0.5744409462966591
1.9211533707601354 12.661045421045936 56.323380887536196 140.43424343139918 0.5878019976506657
1.937515345050045 12.62134581960828 51.62119509971028 147.64338481522165 0.6017605781675985
1.9530341403850031 12.579584451842884 47.37275337858626 155.28641104372295 0.616357624825868
1.9676968023593366 12.535833680794912 43.530522854358146 163.3944400417061 0.6316325145140799
1.9814537020331286 12.489972615854613 40.05512212153267 172.0030343660748 0.6476334144318782
1.9942951044535546 12.442069907226536 36.90353945425686 181.15045626835212 0.664410546852828
2.006157848335234 12.392006079210638 34.05282466361454 190.8782344486905 0.6820173613201534
2.0170522701034543 12.33988163394086 31.46487762577805 201.23206020000248 0.7005126428269555
2.0269416333433568 12.28565794739392 29.116421052390802 212.26224914915556 0.7199610219699812
2.035802551568484 12.229339949932568 26.982607862205793 224.0231505007106 0.7404299272996097
2.0436097403166262 12.170925220914592 25.04647548668635 236.57569306299393 0.7619966774274802
2.050329400518789 12.110385958967175 23.284578679965872 249.985604947856 0.7847412173236014
2.0559536836490198 12.047766678462724 21.68283393006552 264.3266734051049 0.8087551427732904
2.060468171984965 11.983099833405326 20.223585655553244 279.679495637287 0.8341357783760126
2.0638467455653884 11.916387642291955 18.8961640939223 296.1335337391445 0.860990768403248
2.0660760956123534 11.84765298500999 17.68713175060262 313.78658888452986 0.889433918509222
2.0671412598843646 11.776932305705861 16.58741980137635 332.749572409216 0.9195980529102886
