M[M_sun], R[km], Lambda[1], P_c[MeV/fm^3], rho_c[fm^-3]
0.24162668629717493 15.618656898711224 2160425.4255784233 3.5677272577965504 0.1711233750220791
0.2536444209566071 15.27727833169367 1723201.8399410292 3.784827590321872 0.1738882725738079
0.26604080206754244 14.981251222893336 1383081.1436471886 4.011418270961436 0.17666686397681206
0.2788166555941366 14.723482129140319 1116446.7930529788 4.247755143802239 0.17945782655662385
0.2919710246854233 14.498406311694318 905905.2922913448 4.494463477399854 0.1822677280859488
0.3055073849777108 14.301208991963266 738668.4067918189 4.751698886478534 0.18509227501611597
0.31942318205966835 14.128141569116503 605118.6547845291 5.020143676526402 0.18793808654776945
0.33372300870694155 13.975962244009976 497690.52026270237 5.300021839415309 0.19080178443560566
0.34840420833288877 13.842000585570254 410990.0760494681 5.592062112767638 0.19368966771472254
0.3634671187874518 13.723960192907615 340663.2981662782 5.896431634604202 0.19659679672172364
0.37892167296725715 13.619967464305093 283286.81148053874 6.213994566519698 0.19953085382407665
0.3947544506038934 13.528429125950353 236407.43332621074 6.545007983907674 0.20248801123972934
0.41097975276916565 13.447866244400839 197857.8809201452 6.890175003844678 0.20547199220033338
0.4275876432203388 13.377042143862356 166068.60905080134 7.250200461823854 0.20848586506981487
0.44458416958491076 13.314909113901624 139789.2848942285 7.62534293878652 0.2115251700994052
0.4619660900230835 13.260550573616218 117974.29910801764 8.016552249586006 0.2145960815313001
0.4797323162381109 13.213122642821038 99806.86589323546 8.424533104346471 0.21770024110227315
0.4978897355138234 13.171961748935171 84636.2414308327 8.849725950215902 0.22083511043828133
0.5164279119655624 13.136400092460377 71932.86943012768 9.293004958689915 0.2240041093725651
0.5353476530719006 13.105827667041453 61270.832616109954 9.755254650422735 0.227210151906544
0.5546550398043827 13.079811111156518 52300.536986137144 10.237284704458904 0.23045458912229158
0.5743380121547496 13.057827438509442 44726.57415153344 10.739565412101124 0.2337341061201945
0.594396383261407 13.039506411207427 38322.682231137194 11.263343294338435 0.23705491350638713
0.6148334970902833 13.024491912384903 32898.84526188847 11.809555233401205 0.24041861599074107
0.6356393433561461 13.012418771009079 28289.13750533265 12.379180356781982 0.24382684674301644
0.6568096376425449 13.00301297102363 24368.877101780025 12.97290662530727 0.2472775441206096
0.6783421773388469 12.995986839974478 21025.64611371016 13.592063008018828 0.2507755174952746
0.7002300482720516 12.991053802203632 18170.955667195853 14.237846332466606 0.2543233927002219
0.7224656186867379 12.988008179554317 15728.216681047888 14.91144644602871 0.25792315466101023
0.7450545903920286 12.986640427879989 13632.310747987704 15.613890573715313 0.2615746748158186
0.7679747042443295 12.986758270331082 11835.140197377454 16.346449939767577 0.26527989801083107
0.7912221125855943 12.988141696974543 10287.740813109116 17.110738403759154 0.269043491172081
0.8147973991783901 12.990668852316608 8955.335516686202 17.90821122113684 0.27286788729114725
0.8386807114162581 12.994130356004106 7806.488750030241 18.740227669317964 0.27675411262232286
0.8628615783210456 12.998403205921402 6813.368979853626 19.608144486057302 0.28070275709133086
0.8873434923369655 13.003366959647193 5954.743300286921 20.514041895781123 0.28472012835319926
0.9120992184729606 13.008849249270739 5210.429896120489 21.459714297738472 0.28880924029506516
0.9371204879273194 13.014756453715913 4564.734673830407 22.446638000957115 0.2929699508450261
0.962404967835416 13.020950153182566 4004.055514473325 23.476854343846604 0.29720618645913693
0.9879247419641928 13.027342403076318 3516.0965345664927 24.55277839736391 0.3015239860013555
1.0136688702149173 13.033802177469342 3091.701497716662 25.676342951061212 0.3059249093955568
1.0396338751992777 13.0402509679027 2721.084307370201 26.849528679936856 0.31041035942975426
1.0657857208648376 13.046578852153166 2397.826056524393 28.07542350659208 0.31498900215585157
1.0921180558829584 13.052710115039725 2115.515253969194 29.356070236962243 0.3196611981976231
1.1186178545106646 13.058538888031553 1868.3635245181606 30.694249488862802 0.3244318019876383
1.145248862687241 13.06400463624771 1651.8961396220313 32.093336186498384 0.32930870178474064
1.1720124093346598 13.069014683115293 1461.8632754326175 33.55529715095541 0.3342897614833814
1.1988700745177565 13.073469331650434 1295.222972428586 35.084663061267825 0.3393884677441671
1.2258158409237039 13.077339884263537 1148.8921885410232 36.683442289394236 0.34460149007704366
1.2528128073387115 13.08049750898706 1020.0170905436531 38.35670241190189 0.34994335935207965
1.2798555502867806 13.082934055049925 906.6041561920778 40.10669901875449 0.35541074437065784
1.3068990579019613 13.084525038363106 806.6122702413675 41.938874799084985 0.3610180367336577
1.3339373022802936 13.085238865464337 718.4710471642182 43.85674151224427 0.3667673224942131
1.3609457292741705 13.085031703698503 640.5254045566148 45.86496278299861 0.3726662158517937
1.3878775397601328 13.083773577912105 571.7247641582005 47.9688849711399 0.3787247452822275
1.4147347012767884 13.081480761684471 510.73863726233117 50.17327928444063 0.3849486342597476
1.4414577500370302 13.078027684787518 456.78605218602553 52.48333909373345 0.3913447149670153
1.4680527593472548 13.073426734660803 408.94220193325845 54.905494556791574 0.3979247491257975
1.4944625769339777 13.067560587179136 366.4700976826026 57.44593617247114 0.40469779881754653
1.5206751367878795 13.060413351323456 328.77936592952744 60.11129260522692 0.4116736362980126
1.5466584151504335 13.051923928504698 295.2351403602584 62.908670129978354 0.4188628024726143
1.5723746523815019 13.042043313830847 265.4186788070624 65.84569585366378 0.4262766701461596
1.597799968684382 13.030712235471615 238.8868767882288 68.93056509689681 0.4339275126057501
1.622885973276472 13.01788899688079 215.19283597980802 72.17209336680382 0.4418285781641403
1.64763806432228 13.00354875887319 194.06374771580226 75.57977340616641 0.4499941713666447
1.6719875918187472 12.987614584742392 175.19515828795892 79.16351163281045 0.45843837934044557
1.6959243490901676 12.970059958988934 158.34056242557196 82.93356546864696 0.46717474610311593
1.7194045412480976 12.950846911014578 143.25367463179015 86.90264270098464 0.4762246910780951
1.7423865519645365 12.929909261982694 129.76342232516677 91.0822937145737 0.4856024428637993
1.764869367938872 12.907256077091642 117.65928888736889 95.48666760003435 0.495330154680788
1.786796447790646 12.882816783392801 106.80793848477131 100.12937663483707 0.5054251234171547
1.8081340227035256 12.856556601121415 97.06814290358044 105.02697765313415 0.515913168069655
1.8288432961358059 12.828419867765668 88.31669557855702 110.19601450349015 0.5268168300104096
1.8489228358452825 12.798450116008443 80.44799620856143 115.65416139773338 0.5381596345615894
1.8682989290041079 12.766509239894297 73.37381398302567 121.42155348999061 0.5499706340044911
1.8869770387847784 12.732687720220088 66.99923577529371 127.51962932906477 0.5622796807566428
1.9049000972876533 12.696869005872859 61.24689084025009 133.9708653509942 0.5751161932590907
1.9220402929554574 12.659050429809588 56.064329865084076 140.8009534980409 0.5885164883132742
1.9383535865549855 12.619160488763121 51.38246427556007 148.03756808687808 0.6025188093024704
1.953848805833545 12.577313111975045 47.156916063109506 155.7091802962852 0.6171588148792723
1.9684650335730887 12.533380573293778 43.3308700407208 163.84947277422643 0.6324842169992204
1.9821791791631975 12.487376705118328 39.87349558761994 172.49226947942756 0.6485367335768234
1.994969691515261 12.439296933031738 36.73992419993703 181.67678377436306 0.665369259702971
2.0068039811339653 12.389135458668632 33.897810590504534 191.445068740138 0.6830363661240435
2.017649486560591 12.33685864178405 31.322470513613922 201.84316752717297 0.7015972980519161
2.027484692190967 12.282472564974768 28.98699109828467 212.9209875717837 0.7211145736190337
2.036294394859543 12.226003334513933 26.8654494357181 224.73412730989438 0.7416588676402411
2.0440380857359046 12.167404907416236 24.93856079097534 237.34365849177618 0.7633069869423956
2.0506963886552025 12.106695754677599 23.183868446981045 250.81651255430293 0.7861417120927705
2.0562679973373497 12.043946764948448 21.58983110951122 265.22588603171755 0.8102514848271264
2.0607134248911025 11.979094461781019 20.138306104141137 280.6533141888354 0.8357352911216562
2.064018594099557 11.912197398148736 18.81898830278141 297.18876273496153 0.862700825204127
2.0661760192152654 11.843293307816465 17.615301082955078 314.932577567169 0.891268420991501
2.067168309198939 11.77240020334347 16.521403074613307 333.99411043538885 0.9215637013096326
