M[M_sun], R[km], Lambda[1], P_c[MeV/fm^3], rho_c[fm^-3]
0.24162668629717493 15.618656898711224 2160425.4255784233 3.5677272577965504 0.1711233750220791
0.25363973005712553 15.277422352865408 1723316.8986648195 3.7847587624927734 0.17388741466812185
0.2660326202296843 14.981417280309154 1383226.3443882666 4.011273582401309 0.17666511550095226
0.27880387856418054 14.72372898911304 1116614.6595937219 4.247529700782543 0.17945521175733076
0.2919548329511588 14.49863419150252 906118.9637649991 4.494151365480382 0.1822642526472881
0.30548570361300575 14.301523484885594 738892.3766860303 4.751289509591575 0.18508785296442928
0.3193974277350977 14.128419386895875 605263.0317405235 5.019634020534483 0.18793279867014415
0.33369187852467047 13.976234887320274 497888.8805795807 5.299398488352965 0.19079550832473433
0.348367971214947 13.842291643219964 411179.24757396406 5.5913235117599305 0.19368252154679083
0.3634249775618756 13.724268608524682 340813.67558174324 5.89556119221206 0.1965886213425714
0.37887221948254846 13.620290482117742 283450.59393444867 6.212981751353546 0.19952161816927017
0.3947002937316289 13.528707176080925 236529.94517685374 6.543853848999802 0.2024778910357472
0.4109190370768365 13.448115896130735 197995.5254548475 6.888857271715706 0.20546076984055822
0.42751963062098725 13.377334177120044 166203.29490890238 7.2487067697206 0.20847350813784513
0.4445098324473917 13.315152629951289 139896.01835862416 7.623677416472125 0.21151191147085527
0.4618836767569929 13.260787592192798 118065.17171715331 8.014685850412897 0.21458164342477717
0.47964135120049867 13.21336102217457 99884.5832495802 8.422451277665678 0.21768458867597393
0.49779165958963256 13.172171000879164 84707.68324637708 8.847436373153974 0.22081853292209194
0.5163228295168376 13.136577757650805 71997.5309214019 9.290470584108629 0.223986267217513
0.5352348582635409 13.105987086492725 61327.50065011745 9.752458298525655 0.2271910066012613
0.5545338967477405 13.0799531363251 52349.410100335226 10.234208151707424 0.23043410048113386
0.5742061259298091 13.057952631086806 44769.852880553844 10.736222026661535 0.23371264055002114
0.5942582389758811 13.039651729116668 38363.67657357498 11.259682804280146 0.2370320426982616
0.6146861170421809 13.024589417787142 32934.88998231299 11.80555601936347 0.24039429409685037
0.6354792226166875 13.012510577373952 28323.048550852447 12.374819450842786 0.2438010254953583
0.6566428976182764 13.003076511336692 24397.285243292146 12.968204053102257 0.24725066614626623
0.6781670609725 12.996024730954145 21050.103370404693 13.58695200304123 0.2507470607888795
0.7000458650995178 12.991085302436407 18193.055887022456 14.232299496907704 0.2542933008466015
0.7222704136325511 12.98801986875962 15632.496535891112 14.905434621992908 0.25789136788115874
0.7448493967517713 12.986655577326674 13650.283966737836 15.607441378090778 0.2615417108057065
0.7677617551071155 12.986744198142075 11850.131986128528 16.339476052637213 0.26524513493259755
0.7909959402358613 12.988112262399545 10232.817339240479 17.103204833213834 0.2690068579696001
0.8145602251925983 12.990634634885373 8968.305775355591 17.900080655704496 0.27282930833953406
0.8384357805347433 12.994082579013856 7817.175395860102 18.731536167869972 0.27671417967027295
0.8626048413588595 12.998358518687269 6823.445749524477 19.59877905995002 0.28066074033085264
0.8870702013037043 13.00329216507729 5963.390274388459 20.503957480844935 0.28467593688333565
0.9118206844372665 13.008790632539716 5218.128195463574 21.448862744396465 0.28876277708612336
0.9368315447802319 13.014668285420047 4571.577815273671 22.43506450714376 0.29292188114067347
0.9620985965019583 13.020874767302308 4010.147000170272 23.464413701120918 0.29715566131255283
0.9876129241775914 13.027272098927957 3521.5361829927315 24.53941206416799 0.30147088790486437
1.0133516336697528 13.033729513633547 3096.6714745238446 25.662102659070637 0.30586995336623973
1.0393029496727848 13.040169452975613 2725.5583843617824 26.834240377789676 0.31035260297719985
1.0654457297003783 13.046511824105034 2401.791783288693 28.059015649709373 0.31492830235855945
1.091764426827588 13.052627057751302 2118.8502884597156 29.33860096796402 0.31959831955541534
1.1182532054485264 13.058471640382303 1871.4771867584034 30.675510292198844 0.3243656982571365
1.1448752684450074 13.063931043146438 1654.657881831836 32.07335860228458 0.32923997096884783
1.1716293275190355 13.068943118432239 1464.3868908816196 33.533906469409544 0.33421767268110025
1.1984756346779648 13.07341018164539 1297.5277075348408 35.06172874265645 0.33931263017002705
1.225412909094151 13.077284487962856 1150.8959385864184 36.65903087399417 0.3445227426297689
1.2523996978004486 13.080453088880367 1021.951035228942 38.330557766401995 0.34986060538281577
1.2794347212165567 13.082903345021071 908.2461120107575 40.07884002940202 0.3553245579646883
1.306470750852978 13.084505921457827 808.1456012225262 41.90921099760827 0.3609283585677473
1.3335001207404897 13.085231226512352 719.8191912756596 43.824940411351 0.36667279317604
1.360500559355604 13.085041136423976 641.7936833847385 45.83109100098224 0.37256772131082394
1.3874259410487233 13.083801204150179 572.8091318369592 47.932797872079576 0.3786220297491328
1.4142744574866897 13.081527650466978 511.7058963217955 50.13458127885077 0.3848401981834764
1.4410006414046368 13.078116010332543 457.681971984469 52.44209159802039 0.3912314647978884
1.4675825893678296 13.073519585035962 409.7448977305115 54.86151498503792 0.39780636402819014
1.4939872421918692 13.067676434699903 367.19523802161063 57.39902715168697 0.4045739331580783
1.5201953599277607 13.060558914149423 329.43061752849826 60.061240651685 0.41154391760958814
1.5461751443450311 13.052095674900377 295.82915903129896 62.85524419349735 0.41872682921671983
1.5718894336165172 13.042245822278757 265.9742013069428 65.78864571513864 0.4261340092517802
1.59730501908046 13.030935765432565 239.35584471190413 68.86961960258418 0.4337776967607185
1.622396936513997 13.018157065038329 215.626237823335 72.10695848084526 0.4416711028318534
1.6471485076449695 13.003848874564001 194.45723052265632 75.51013006053505 0.4498284914978177
1.6715034836990776 12.987952471308498 175.5661958485044 79.0893395836967 0.4582652680544572
1.6954381539302106 12.970440838691308 158.6733114014979 82.8542162337865 0.46699240179250906
1.718902078243205 12.951229486916592 143.56021365540732 86.81767066906075 0.47603227123282266
1.7419173620378032 12.930388719104178 130.03485017773548 90.99166351126084 0.4854008240212068
1.76439675391913 12.907772081109728 117.90781850176917 95.38950646982106 0.49511696146607387
1.786324706298061 12.883371737519123 107.02657269325846 100.02559998656633 0.5052011779124089
1.8076673867143078 12.857151262635597 97.27300464463839 104.91604753471594 0.5156776077306754
1.8283960791780414 12.829098285142871 88.50388930892807 110.07701552681364 0.5265674986040486
1.8484734676819832 12.799151538742551 80.61737148039646 115.52662564850264 0.5378961897128824
1.8678702357960917 12.767299173554155 73.52233967090955 121.28492036343118 0.5496924990292711
1.8865501552953992 12.733504314410245 67.13679925659382 127.3731579576948 0.5619857545253907
1.9044844813935167 12.697737454235217 61.3767813181193 133.81420298983127 0.5748068931149237
1.921639096077446 12.659982344831018 56.18291475176066 140.63268860853097 0.5881886443206052
1.9379738408796554 12.620178419103459 51.49099016447888 147.85669341473877 0.6021708878715343
1.9534723300573116 12.578341344155922 47.25609153884481 155.5151850158965 0.6167911744037343
1.9681122364860566 12.534499013608903 43.42280264720144 163.64078145819576 0.6320937725652526
1.9818463110907327 12.488566552141661 39.95402077777274 172.26776566509818 0.6481222118304035
1.994652050099379 12.44054652341846 36.81530393316629 181.435253617647 0.6649293091735075
2.0065047016178776 12.39044433737664 33.96945920145536 191.18494442161827 0.6825687375169186
2.0173789997467035 12.338252676013381 31.387168530752206 201.5627196002395 0.701099530645516
2.027237834281644 12.28393730624204 29.046531852628753 212.6190130412131 0.7205862872443627
2.0360716180913503 12.227541763173349 26.91941399676662 224.4078324253808 0.7410948591643799
2.0438419535084384 12.16902209839451 24.98753457047491 236.99145422142414 0.76270644630741
2.05052922471995 12.108389850834444 23.231385340725396 250.43523613105532 0.7854991938643366
2.056123045202754 12.045689585456909 21.632036524929084 264.8131712355243 0.8095647034280365
2.060604225834243 11.98093694635961 20.178537165001465 280.2065533713817 0.8350018166027493
2.0639463837762397 11.91413090102451 18.85482598663753 296.70452499689014 0.8619162733021937
2.066132518191366 11.84529292866187 17.649500841844052 314.40655624235507 0.8904263643109057
2.06715682391488 11.774480051325318 16.551877463204356 333.4228376633116 0.9206614215990836
