M[M_sun], R[km], Lambda[1], P_c[MeV/fm^3], rho_c[fm^-3]
0.24162668629717493 15.618656898711224 2160425.4255784233 3.5677272577965504 0.1711233750220791
0.253638603779338 15.277427757990278 1723298.8721544263 3.7847368220139455 0.1738871411906377
0.2660306309236169 14.981434150110534 1383251.8040117195 4.011227460326543 0.17666455814289808
0.27880026973997263 14.723800204144991 1116669.3095851005 4.247457837955768 0.17945437825683513
0.29194972971504707 14.498745425474265 906215.5880398281 4.494051877434085 0.1822631448248026
0.30547844733402546 14.301601673592833 738911.9269946644 4.751159019716899 0.1850864434247391
0.31938946824147213 14.128514269094666 605278.1817531086 5.019471568946661 0.18793111317221994
0.3336807414753804 13.976321580543013 497937.9715845081 5.299199799888114 0.19079350786157706
0.3483560146963926 13.842392332793533 411240.94186511193 5.591088091716651 0.19368024379311027
0.36341151471916117 13.724360433910281 340852.1720590519 5.89528375363108 0.19658601558070657
0.3788572203112026 13.620376845079347 283507.683060121 6.212658938850137 0.19951867450793065
0.3946818926215734 13.52882153480053 236598.28605852256 6.5434859991034795 0.20247466548909732
0.41089902456721333 13.448233545921859 198031.21965703604 6.888437285865978 0.2054571930648217
0.4275002345825983 13.377363927250515 166234.791886698 7.248230709263225 0.20846956981168513
0.44448580605300314 13.315234513735495 139936.71895513797 7.623146598447483 0.21150768581806426
0.4618586675680103 13.260846876851657 118096.00017707312 8.014091019750479 0.21457704192870344
0.4796138745576327 13.213432430514803 99919.49430326899 8.421787798909477 0.21767960024325358
0.49776058406025975 13.172240557575707 84734.54661115482 8.846706693685562 0.2208132497309726
0.516289841417888 13.136627493899788 72023.98725046 9.289662900281028 0.2239805810730135
0.5351977505629493 13.106052635228547 61350.81083481705 9.751567137576513 0.2271849052416845
0.5544952206859053 13.080007930697942 51878.2580694255 10.233227708483954 0.23042757111173767
0.5741649090186768 13.058004396758896 44785.23819993691 10.735156561701716 0.23370579993493937
0.5942159986830131 13.03967151673652 38376.5944817303 11.258516301518663 0.2370247543678985
0.6146388048256672 13.024649847851375 32947.61858677091 11.804281592228302 0.2403865434535338
0.6354301318678073 13.012526229510144 28102.309416250857 12.373429783320669 0.24379279717084237
0.6565865977062183 13.003094106242271 24407.63613683554 12.966705526464274 0.24724210118250328
0.6781110236976321 12.99604531635712 21058.988336623443 13.585323347829299 0.2507379928730023
0.6999859684285757 12.991096048153807 18199.70001672829 14.230531986458852 0.25428371201615313
0.7222076312718329 12.988020598562834 15754.560964353801 14.903518969186388 0.25788123910265986
0.7447834480173706 12.98666183595516 13655.5681315731 15.605386382026808 0.2615312070289602
0.7676916760453967 12.986743484594317 11854.754015719425 16.33725389840891 0.26523405805110495
0.7909242291362113 12.988111543727467 10305.940880733495 17.100804376029405 0.2689951853591752
0.8144855361314518 12.990628983426408 8972.043825299888 17.897490012208134 0.2728170159213837
0.8383533518916195 12.994084917803535 7820.257730506652 18.728766825548785 0.2767014559752033
0.8625227609386699 12.998343178392586 6826.559023578464 19.59579503022765 0.2806473528714174
0.8869838718465244 13.003281218186215 5966.1977862441145 20.500744411904993 0.2846618567170466
0.9117313379699173 13.008768842232456 5220.556218471438 21.445405302075812 0.2887479733193366
0.936739546064046 13.014653160818805 4574.275730868762 22.431377088852503 0.2929065657043892
0.9620036446632758 13.020839953420591 3989.8673814414087 23.460450059571944 0.2971395637865098
0.9875158300362661 13.027239398839782 3523.3966427282267 24.535153556625705 0.30145397087600734
1.0132469258798358 13.033693504547768 3097.9716161584047 25.65756576292635 0.30585244461026206
1.0391951918644096 13.040149835974121 2726.854768343658 26.829369663076964 0.3103342022940826
1.0653365794807317 13.04647665547753 2403.0427861799826 28.053788334060712 0.314908964244964
1.0916519567323482 13.05259898786808 2120.0281590336544 29.333035569339096 0.31957828753753775
1.1181374789053393 13.058445067879822 1872.4810231688812 30.66954040913276 0.32434463910778216
1.144755638345839 13.063907091156382 1655.4537213484919 32.066956247340585 0.32921782913487413
1.171507450076612 13.068922538885305 1465.2191989645275 33.52709207578219 0.3341947074719827
1.198355827270034 13.073404685298964 1298.2126048789653 35.054422711435706 0.33928847110544963
1.22528563572294 13.077268435464847 1151.5841763009912 36.65125439503563 0.34449765691242173
1.25226895667216 13.080442380718129 1022.4604284600048 38.3222214318688 0.34983419770252083
1.2793005924201384 13.08289595124721 908.7778689454543 40.06996555774696 0.355297103314157
1.306333475994432 13.08449912198057 808.642075937929 41.89976173210722 0.36089979200658023
1.3333595217262109 13.085229528356795 720.2011818529353 43.81481049098408 0.36664268181390053
1.3603588838682437 13.085052357121654 642.1778060654173 45.820301637717314 0.3725363473080737
1.3872818322934433 13.083810665401485 573.140626474096 47.92130301642872 0.3785893116793303
1.4141212910937202 13.081529335937061 512.0464629239684 50.122254987606965 0.3848056585570259
1.4408526978621066 13.07813243787334 457.95858117157 52.428953425263856 0.39119539229794686
1.4674327146387336 13.073550285494925 410.00127562733945 54.84750680268703 0.3977686565206182
1.4938367238832069 13.067712393312647 367.421736544899 57.38408612548505 0.4045344806171236
1.5200423616993968 13.060608154776315 329.62743029406 60.04529882007096 0.41150260147022255
1.546021805413802 13.052149271763254 296.02277395086946 62.83822800447769 0.4186835216628178
1.571734734118499 13.042305451680065 266.12893826284676 65.77047551648725 0.42608857243326104
1.5971517630914407 13.031010820630176 239.5172781462584 68.85020908012609 0.43372998193196266
1.6222443533167368 13.018232034481258 215.78087799188143 72.08621403893783 0.4416209494027899
1.6469932227633113 13.003943919707975 194.58936938686256 75.48795013812976 0.4497757259880423
1.671347626762863 12.988058875115149 175.68320954440452 79.06561389853557 0.45820970293956476
1.6952843187582973 12.970561530470789 158.7821709946752 82.82894604542129 0.46693433097324455
1.718748572744561 12.951359840443995 143.66414668712798 86.79061031644255 0.47597099284808925
1.741763928579781 12.93053646960751 130.12223425122073 90.96280172610956 0.48533661717288645
1.7642441724733138 12.907932628736997 117.98366899609016 95.35856548903045 0.495049070045434
1.7861746487211516 12.883544893747802 107.1040894737072 99.99255287734306 0.5051298636844134
1.8075200566068075 12.857347993531322 97.33243446969864 104.88072308747395 0.515602596192914
1.8282499715022058 12.829299631824858 88.56487940448257 110.03907770933759 0.5264879369902541
1.8483314065010557 12.799376447389637 80.67310822385896 115.48601499644779 0.5378123021193958
1.8677300859427568 12.767539425938544 73.5743595518901 121.24141374785891 0.5496039355033618
1.8864137336915214 12.733763238559199 67.18109936094423 127.32651135764293 0.5618921351712863
1.9043526578592087 12.698014673307679 61.417729594255576 133.76432065370977 0.574708409895092
1.9214937002403123 12.660218862084916 56.219510533342465 140.5791131382898 0.5880842589308539
1.937849713744457 12.62049351211452 51.52660588264958 147.79910431312362 0.6020601123693411
1.9533613764849576 12.57870721517265 47.2866986498243 155.45341971757802 0.6166741229806273
1.9679992664805892 12.534854206807347 43.45356887316199 163.5742721709259 0.6319692383124739
1.981740972368418 12.488943105523582 39.98215455858926 172.19629026220025 0.6479902403139113
1.9945508417026618 12.440950556584815 36.83946817895498 181.35835934774698 0.6647892451946851
2.0064114039568595 12.390865777482928 33.99096698399113 191.10213249224822 0.6824198655183104
2.017298667935051 12.338715652198813 31.409910270375516 201.47343982004818 0.7009410678424005
2.0271552605512793 12.284398702620562 29.066158722083483 212.52275213608985 0.7204176851467717
2.035988463538851 12.227993113212216 26.936686021096772 224.30396277005488 0.7409153179923632
2.043779687723133 12.169535338892773 25.003634916774537 236.87933977161578 0.762515280871478
2.0504817529897483 12.108945222816146 23.244044305115956 250.3138248085009 0.7852945218181918
2.0560781028043293 12.0462533745379 21.64580732989131 264.6818025711187 0.8093460983381071
2.0605703248720704 11.98152313564455 20.190445029064797 280.06422957849804 0.8347679563683993
2.06392144786555 11.914744118386501 18.8655801963966 296.5503993841611 0.8616665621931735
2.0661168548726665 11.845929055303236 17.659117912808686 314.23913693418183 0.890158358927364
2.0671521791114023 11.77514198154835 16.560881399721193 333.2410217343554 0.9203742578626513
