M[M_sun], R[km], Lambda[1], P_c[MeV/fm^3], rho_c[fm^-3]
0.24162668629717493 15.618656898711224 2160425.4255784233 3.5677272577965504 0.1711233750220791
0.2536420417462382 15.277351781890692 1723162.601988925 3.784803622082527 0.17388797382126714
0.2660379850186455 14.981291784941378 1383107.1049028493 4.011367884958495 0.17666625509170228
0.27881166103890265 14.723603428583157 1116502.2331282494 4.247676635419118 0.17945691597768926
0.29196585546179593 14.498466375551896 905946.117481056 4.49435478653804 0.18226651778797667
0.3054996046777383 14.301309770261062 738775.6700987528 4.751556322606403 0.1850907350542097
0.3194152417128824 14.128213406990525 605164.0497908574 5.019966189508018 0.18793624505145
0.33371124022128373 13.976063612281031 497721.60073496925 5.299804756541999 0.19079959877127706
0.34839153942679757 13.842102795866221 411051.3826354016 5.591804892064296 0.19368717903365873
0.36345234629820283 13.724074471689871 340689.83595171315 5.896128497303032 0.19659394959204038
0.378904771127784 13.620075360159603 283348.54552194313 6.213641844284741 0.19952763742199905
0.39473427902909447 13.528541827253854 236434.82991279062 6.544606042981808 0.2024844867608051
0.41095893594846816 13.447938090972997 197911.8006457834 6.889716084866696 0.20546808385373902
0.42756366987823785 13.377139907986598 166104.45645240817 7.249680258432304 0.2084815615604733
0.4445580804294348 13.314991511514776 139835.4064685898 7.624762888793991 0.21152055252849372
0.46193795814849675 13.260628761814088 118008.67477730772 8.015902235658801 0.21459105314805949
0.4797006448829329 13.213212052897672 99832.3308297788 8.423808057875576 0.2176947897664084
0.4978553054591259 13.172044357982289 84663.47636917389 8.848928544579376 0.22082933688076767
0.516391571657382 13.13645661797005 71955.615330973 9.292122289551267 0.223997895326801
0.5353085960649497 13.10588082959653 61292.29767126685 9.754280733182693 0.22720348395359424
0.5546121194253721 13.07986851591586 52313.70921686877 10.23621319087441 0.23044745325981766
0.5742931559779377 13.057879105066128 44340.393283416 10.738400957905325 0.2337266299635547
0.5943481675858352 13.039546508499981 38337.295391261556 11.262068388084463 0.23704694786904124
0.6147815759273344 13.024527773190922 32911.08448562171 11.808162343720328 0.24041014489749624
0.635580803992815 13.012451100077246 28302.70381453193 12.37766148244973 0.2438178533753902
0.6567515112556878 13.003031163512336 24378.00727704362 12.971268741223822 0.2472681826468346
0.6782804884240934 12.99598948149051 21034.653563712265 13.590282856247647 0.2507656060871438
0.7001667719052405 12.991060899877679 18042.110209499016 14.235914368343417 0.2543129117005641
0.7223984984326365 12.987992339688196 15735.5396242999 14.909352511635701 0.25791208324055986
0.7449831157380077 12.986652574290964 13639.090342538106 15.61164428860278 0.26156319329634314
0.7679009548130917 12.986751384553317 11839.75070243591 16.344020885114485 0.2652677897826134
0.7911433188351864 12.988128777153083 10293.515997581088 17.10811438893043 0.2690307314765349
0.8147147768069685 12.990654407873786 8959.635590832222 17.90537924728536 0.2728544497777178
0.8385939647774907 12.99412212678086 7809.988619404562 18.73720029723996 0.2767402034140288
0.8627725216891255 12.998381566206438 6817.134482496214 19.60488235341665 0.28068812195949167
0.8872442662777034 13.003331358312746 5957.448780918207 20.51052930240947 0.28470473562440846
0.9120025138540971 13.008825396856748 5213.212294897466 21.45593446837404 0.2887930561603161
0.9370194201856843 13.014722243393292 4567.204508988143 22.442606680753535 0.29295320703598604
0.9622958093810807 13.020916922315173 4006.371241798204 23.47252094387812 0.29718858723428637
0.9878170871836253 13.027316306170016 3518.02040935352 24.548122521297387 0.30150549041599134
1.0135560301592044 13.03377890418314 3093.5037913214774 25.671382620839044 0.3059057665259238
1.0395179492536004 13.040227458003779 2722.607964459332 26.844203256219384 0.3103902409378963
1.0656666321564652 13.046550342378701 2399.358050541684 28.069708062033712 0.31496785824116436
1.0919952070933363 13.052679370560664 2116.758137341673 29.349985027677057 0.31963929518053397
1.11849110084993 13.058516553906571 1869.4263977119151 30.687721865906802 0.3244087753746816
1.1451193213214765 13.063978285929323 1652.799251464579 32.08638745416722 0.3292848266248734
1.1718786643036014 13.068987675398832 1462.8070002711154 33.54784580422379 0.33426464967662983
1.1987323761914768 13.073442660811088 1296.0487951036534 35.076673932747525 0.3393620498620081
1.2256752933666422 13.077317523026668 1149.6370147395257 36.67493856228488 0.34457405836973753
1.252668770179972 13.080480495172258 1020.6532012919512 38.3476109087212 0.34991462599926254
1.2797074902111445 13.082932635268056 907.1321843537435 40.09699418543057 0.35538072085852895
1.3067499272203957 13.084520614190438 807.1592162849511 41.92854118004864 0.36098679663777433
1.3337849188740978 13.085226685714325 718.8683361028818 43.84566325522963 0.366734392185113
1.3607906014120361 13.085039713458274 640.92739673614 45.8531630998628 0.3726319039761006
1.3877205752302573 13.083784393429827 572.0913291040455 47.95631346406047 0.37868896271490865
1.4145748201518353 13.081498855693239 511.0847849859321 50.159798108886534 0.38491085852018875
1.4412958429089169 13.078053508648003 457.0802368932527 52.4689696499028 0.3913052618580217
1.467889560342206 13.073459391841084 409.23110748543985 54.890173221167814 0.39788350684578044
1.4942962680928917 13.067599305779302 366.7161825676235 57.42959416808637 0.404654646922318
1.5205077365229684 13.06046451793567 329.0044920430502 60.09385554027261 0.4116284449910649
1.5464901014506787 13.051984573969763 295.44263685562703 62.890057490379355 0.41881543182506437
1.5722046944666284 13.042113880321917 265.6011248552946 65.82582044448922 0.42622696923881215
1.5976292348676129 13.030794519435835 239.04524878829795 68.90933242685693 0.43387531858484374
1.6227111329513457 13.01795297496579 215.35360000826014 72.14940096937724 0.4417737152013432
1.6474681268574363 13.003653173762354 194.2047075714991 75.55551009009746 0.4499364495127164
1.6718165638916247 12.987730350241462 175.32748719895406 79.13768334074302 0.4583781222305471
1.6957548409728997 12.970191440813018 158.45000606810726 82.90592021899693 0.4671112173999362
1.7192201496104857 12.950958239701485 143.36461528693252 86.87303819139001 0.4761576514295591
1.742222290957568 12.93006917167465 129.84593081128511 91.05071762207768 0.4855321976807375
1.7647053013005543 12.90742989701066 117.74380858933377 95.45281575873751 0.4952558761822339
1.786631193741532 12.8830100114566 106.87581665442212 100.09321956953242 0.5053470980388572
1.8079725128381021 12.856766172102244 97.13767193078252 104.98832788151236 0.515831095198603
1.8286855446459311 12.828645589835787 88.38125772822733 110.15464455109458 0.5267302989668525
1.8487660268538149 12.798695231004903 80.51020825255314 115.60972506360125 0.5380678444290725
1.8681553546113234 12.766804951248359 73.42256002158766 121.37394695139083 0.5498737245377521
1.8868289662660247 12.732970626002269 67.04585533659392 127.46861128199022 0.5621773285856162
1.9047548437319424 12.697171731777479 61.292857216101666 133.91627903894062 0.5750084229301975
1.9219010427150587 12.659375645180898 56.10499179434001 140.7423238417843 0.5884022554471549
1.938219103229294 12.619503685154577 51.41997435613056 147.97454400741955 0.6023975793499884
1.9537206671345433 12.577686936212414 47.191877599509134 155.64158375925805 0.617030712675097
1.9683418770202357 12.533771799555804 43.3623103765329 163.77689091734803 0.6323486285483405
1.9820656933139786 12.487796431846306 39.90038239948965 172.41404059620004 0.648392292497313
1.9948595607703634 12.439736102618637 36.76563740107358 181.59262103845876 0.6652159561125389
2.006695355888178 12.38958673809033 33.92349818778891 191.3544256491722 0.682873415952314
2.017555433676781 12.337344760109852 31.344769411606862 201.74544122776823 0.7014238435103771
2.0273984013074315 12.282981137688596 29.0068043961063 212.81575874307848 0.7209304820788548
2.0362164288673887 12.226537634540483 26.884449194122894 224.62042204438126 0.7414623253818632
2.04396946181318 12.167966446683081 24.955427196139407 237.22092288151435 0.7630977114522141
2.050638103809616 12.107284712199874 23.199936553823093 250.68373842875812 0.7859181125670771
2.0562129935764673 12.044540649426523 21.604511041917487 265.08205967817935 0.8100121494187038
2.0606767112998376 11.979735608923763 20.152147514718184 280.497767444399 0.8354801582575929
2.063997412871364 11.9128777114068 18.831452513501944 297.02000655345654 0.8624274099521683
2.0661616192685366 11.843987835186304 17.627310286882775 314.7492569461712 0.8909749607336747
2.0671651158090834 11.77312269195941 16.53144814775589 333.7950163744158 0.921249248143847
