M[M_sun], R[km], Lambda[1], P_c[MeV/fm^3], rho_c[fm^-3]
0.24162668629717493 15.618656898711224 2160425.4255784233 3.5677272577965504 0.1711233750220791
0.25364372427077936 15.277271226702409 1723253.7599179186 3.7848141943658287 0.17388810559967827
0.26603931739290865 14.98133306870137 1383039.8706115482 4.011390109943505 0.17666652366752986
0.2788141143261906 14.723537810920819 1116470.4931789215 4.247711264945258 0.1794573176280069
0.29196796989691076 14.498468684541068 905958.4494336739 4.494402729241642 0.1822670516411082
0.3055038450153103 14.301204542136496 738667.0854062266 4.751619206283747 0.18509141431794032
0.3194195302734345 14.128144323015599 605110.3843075112 5.020044477302377 0.1879370573175328
0.33371709918497805 13.975950565685233 497700.7059177383 5.299900509458405 0.19080056284426244
0.3483970013286673 13.842060418090826 411025.9631154914 5.5919183490978615 0.19368827676166941
0.36345922778101514 13.724018581716122 340664.01093682705 5.896262207303733 0.19659520542466302
0.3789121031465689 13.620027613631088 283324.5237317713 6.213797425215303 0.19952905613275415
0.39474426911528543 13.528480383564181 236408.86302368826 6.544783333233568 0.20248604135680565
0.41096775939811475 13.44792013288449 197879.74924155037 6.889918506852455 0.20546980776431284
0.42757511183441793 13.377085875837517 166084.92643413818 7.249909711507906 0.20848345976696395
0.44456950236237963 13.314974301531796 139812.74354857794 7.6250187387053145 0.2115225892582988
0.4619501590041054 13.260594036997231 117991.72310325214 8.016188944815811 0.21459327107518336
0.4797141290429808 13.213177958274914 99824.02346280654 8.424127861812526 0.21769719424493655
0.49787035941515917 13.17200199625109 84648.35559542725 8.84928026407265 0.22083188348017715
0.5164075343228552 13.136425146838745 71943.44506285025 9.29251161621965 0.22400063621081812
0.5353256254733111 13.105859017808465 61281.57967580812 9.754710306542952 0.227206425040205
0.5546317376469901 13.079835804419984 52306.744510331264 10.23668581082169 0.2304506007242969
0.5743126045605021 13.057868788537997 44734.851573061664 10.738914570878963 0.23372992751794283
0.5943667218284469 13.039552930041294 38331.1603479548 11.262630717644608 0.2370504613143091
0.6148046650623425 13.024512485053265 32906.07311900385 11.808776711556858 0.24041388127899244
0.6356052771229174 13.012452547760006 28296.04159992761 12.378331417472184 0.24382182011036932
0.6567762349910121 13.00304455269622 24373.755092369553 12.971991167003287 0.24727231173634537
0.6783077134018354 12.995980730863902 21030.62941400187 13.591068030765134 0.25076997772849635
0.7001948047495051 12.991072576244445 18174.547549700343 14.236766501207454 0.2543175345629399
0.7224275569162703 12.987995138116421 15731.494125952115 14.910276082914729 0.2579169665100549
0.7450147275973823 12.986651372024399 13636.18488774389 15.612635055471202 0.26156825743937284
0.767934037072701 12.98676090647207 11837.776967667247 16.3450922637297 0.2652731303362992
0.7911771809002468 12.988136152741854 10290.225753406063 17.10927175583693 0.26903635935988385
0.8147509592598089 12.990665864811051 8957.790828883604 17.90662833546582 0.27286037661182
0.8386308784379668 12.994126604860346 7808.394959594419 18.73853556668989 0.27674633828626427
0.8628111835040377 12.998403897370853 6815.683239918674 19.60632116460901 0.280694576997901
0.8872863085185447 13.003336519266746 5956.3529518156765 20.51207857966168 0.2847115247975469
0.9120450492545755 13.008843721682712 5212.035592247203 21.45760161013712 0.288800194378563
0.9370636655255532 13.014725877478156 4565.928519914699 22.444384742656826 0.2929605920928574
0.9623406533930889 13.020935080989128 4005.0408870020087 23.474432237531445 0.29719634956571317
0.9878650381002619 13.027321361525088 3517.1287133144638 24.55017604209733 0.3015136480792774
1.013606367022835 13.03378225742281 3092.331014785294 25.673570420332858 0.3059142096655168
1.0395689869624043 13.040242562745028 2721.9526516927185 26.846552078378455 0.31039911436506196
1.0657188997642073 13.046562047752579 2398.764993375618 28.07222890048046 0.3149771839187235
1.0920493806678893 13.05269193227123 2116.0466726823283 29.352668948694213 0.31964895564825985
1.1185470435813718 13.0585286409842 1868.9703485192874 30.69060090979717 0.32441893138856226
1.1451761152726918 13.063983572293644 1652.4289687791481 32.089452224995846 0.32929535687557276
1.1719377469200696 13.068997059707364 1462.3402722478002 33.55113224785297 0.3342757253305067
1.19879109388295 13.073466399860008 1295.5941008270663 35.08019755871559 0.3393737015378273
1.2257379291731978 13.077325942673404 1149.2757229445454 36.678689146109974 0.3445861571725794
1.252732266292855 13.08048699475893 1020.3972736064319 38.35163159830387 0.3499273626624376
1.2797725525640298 13.082935337952538 906.8995210857703 40.101274500512616 0.35539396272343193
1.306815943204617 13.08452460128456 806.9016781333947 41.93309881181637 0.3610005750490864
1.3338522935329595 13.085234156510198 718.7612950827263 43.85054929655277 0.3667489160267999
1.3608588766701057 13.08503421022367 640.7551576574697 45.85836731381517 0.3726470371233351
1.3877886818109688 13.083777922607936 571.9154040881714 47.96185807686692 0.3787047444727958
1.4146454027833129 13.081489292819002 510.9362667356356 50.16574391174866 0.3849275193150495
1.4413685631409423 13.078039812290825 456.97269280363867 52.475307204985135 0.39132266240980107
1.4679612283440526 13.0734459660971 409.108351502976 54.89693058714708 0.3979016964597109
1.494370175069446 13.067585036477459 366.61463829193883 57.43680167626583 0.4046736787148996
1.5205815229452737 13.060442423970398 328.90322899060243 60.101545998040535 0.4116483762030246
1.5465162688583494 13.051948586031873 295.4136670939687 62.49344265694962 0.4177803277658707
1.564935079734438 13.03811097642244 272.33072893194964 66.19594216156445 0.767951687134188
1.57572467733245 13.013827408678276 256.6612040949171 70.03814612282997 1.0175305876090428
1.5808604006170988 12.979227424503119 245.31571715974403 74.44496299241709 1.2542978322322957
1.5816979640989668 12.934989958572393 236.7133942379327 79.42762130128185 1.4782936703827723
