M[M_sun], R[km], Lambda[1], P_c[MeV/fm^3], rho_c[fm^-3]
0.24162668629717493 15.618656898711224 2160425.4255784233 3.5677272577965504 0.1711233750220791
0.25364376367027736 15.277282929569987 1723211.780897677 3.784814522705187 0.17388810969226995
0.26603948617024104 14.981260591645857 1382988.1910776258 4.011390800177772 0.1766665320086036
0.2788142688419264 14.723541043496391 1116418.877118863 4.247712340425525 0.17945733010195727
0.2919673602631046 14.498489630030841 905931.2160387894 4.494404218188697 0.1822670682208792
0.3055038044815588 14.301209776966942 738643.8631908798 4.751621159253477 0.1850914354137407
0.319419635664414 14.128149159369165 605122.5171421474 5.020046908680129 0.18793708254401542
0.333717330099923 13.975940358540226 497712.89134345955 5.299903483254703 0.19080059278545675
0.3483971778905807 13.842058927443759 411025.0511497861 5.591921872736804 0.1936883108538455
0.36345900853541346 13.72403150890432 340673.34135797 5.89626635994748 0.19659524442717186
0.37891233717863976 13.620024664068788 283320.39385885524 6.213802257115424 0.19952910019386527
0.394744081145242 13.52847762068019 236414.72784782678 6.544788839372591 0.20248608963820644
0.41096767585904087 13.447903463646016 197886.38754423874 6.889924793524173 0.20546986130424727
0.427575507304625 13.377100979299211 166096.6208600374 7.249916837703954 0.20848351872015758
0.44456973925981697 13.31495572230549 139816.25543400503 7.625026684728933 0.2115226525137561
0.46195072411911003 13.260592845608409 117994.90399325511 8.016197849261971 0.21459333995827334
0.4797142835690415 13.213179840351906 99818.04975346633 8.424137794114568 0.2176972689219628
0.4978715483568486 13.17199518299677 84656.87157472238 8.849291187608133 0.2208319625712413
0.5164101811322818 13.136404896862073 71944.73991154518 9.292523707761715 0.22400072133602808
0.5353261811086988 13.105857637710837 61281.16062891301 9.754723648072737 0.22720651638338
0.5546329368663737 13.079829117644358 52306.442967648596 10.236700489301752 0.23045069847724803
0.5743133093990331 13.057874740821287 44734.624714824684 10.738930522531001 0.23373002993249012
0.5943685767275354 13.039542734965464 38332.49597030771 11.26264818235302 0.2370505704341233
0.6148055283622836 13.02451252329693 32904.85207645151 11.808795792491285 0.24041399732290958
0.63560723708319 13.012431224329305 28295.660093740906 12.37835222423857 0.24382194330877702
0.6567770440069367 13.003044312829589 24179.76149917348 12.972013604053918 0.24727243997732604
0.6783086282062954 12.995989118275943 21030.470128808727 13.591092416703223 0.25077011350286627
0.7001957795615219 12.991067702357437 18174.77142368863 14.236792966781833 0.2543176781399725
0.7224289789835102 12.98799759142972 15732.105999319529 14.910304767274969 0.2579171181750802
0.7450157189541284 12.98665414607101 13635.83514605971 15.612665826841457 0.26156841472220616
0.7679343971577971 12.986754945920678 11838.03101220631 16.345125538807082 0.26527329620421425
0.7911782043185968 12.98813486209255 10290.321680843266 17.10930770161618 0.2690365341520361
0.8147521488056935 12.990672278000623 8957.638168230285 17.90666713001293 0.2728605606891721
0.8386341847530887 12.994125719262307 7808.7451469139105 18.738577037938306 0.2767465288251929
0.8628127907554096 12.998391759913767 6815.551464051172 19.606365851768746 0.2806947774810041
0.8872873973031887 13.003341716556477 5956.844446294348 20.51212669780282 0.2847117356587022
0.9120463411051258 13.008841410854803 5211.876081077242 21.457653389056873 0.2888004160809029
0.9370661206845459 13.014732569015854 4565.964042392781 22.44443996666762 0.29296082146195845
0.9623426276134917 13.02092691893717 4005.12446794397 23.474491599630724 0.29719659065283655
0.9878676543731186 13.02732758526582 3517.106546825677 24.55023982168538 0.30151390144530316
1.0136072159689689 13.0337827224896 3092.2978281071446 25.67363837053379 0.3059144718984287
1.0395705012122087 13.040239941501039 2721.8954128379505 26.846625029864775 0.31039938996264094
1.065720502275159 13.046561256501006 2398.7158109853563 28.072307194720356 0.3149774735631618
1.092051091668137 13.052691662050972 2116.135029554926 29.352752308207187 0.3196492556913235
1.1185479932287008 13.058533489748374 1868.8960548108378 30.690690329768543 0.32441924682330553
1.1451778696312074 13.063983168117954 1652.3796343925194 32.08954741358694 0.32929568393419606
1.1719406224596385 13.069001168539367 1462.3577350796152 33.55123432156316 0.33427606932943427
1.1987948541109452 13.073462117819275 1295.6830424999616 35.08030699928542 0.3393740634281223
1.2257398749758044 13.07732431077812 1149.2650953974596 36.67880563596312 0.3445865329508134
1.2527344386794894 13.080489596988642 1020.3717502111083 38.351756477650056 0.34992775825283007
1.2797750234925553 13.082935889821508 906.8951500854988 40.10140744382922 0.35539437400564
1.3068172747835642 13.08452570011677 806.9108097774649 41.93324036860842 0.3610010029967145
1.3338538065310703 13.085236008655201 718.7424741227162 43.850701053820686 0.3667493671278832
1.36086098306667 13.085034170343407 640.7519040648968 45.85852895359103 0.3726475071498462
1.3877909008916738 13.083779018039856 571.9218767785394 47.962030289524094 0.37870523464560957
1.4146476235468448 13.08149000560513 510.93101056643536 50.16592858554444 0.3849280367913767
1.4413708557271607 13.078037986195342 456.97671342479003 52.475504046769345 0.3913232028635903
1.4679641379843886 13.073443561237553 409.1019202973794 54.897140468463064 0.39790226142246715
1.4943687343075698 13.067586463841659 366.58984560337933 57.437025539250534 0.4046742698365169
1.5205836003215392 13.060440158893751 328.89897977461476 60.10178486174491 0.41164899526150783
1.546566610865497 13.051957830426009 295.34973470907755 62.8985213723067 0.4188369730774779
1.5722828208121296 13.042080951566806 265.51698687178884 65.83485853469617 0.42624957009598335
1.5977064904683567 13.030756210091834 238.97391594738002 68.91898769069098 0.433899053095928
1.6227937935397156 13.017940658001919 215.2859497179447 72.15971999836412 0.44179866331470324
1.6475452994554394 13.003605619305194 194.13956012930598 75.5665434427076 0.44996269759710406
1.6718944635511601 12.987675171329613 175.27216340849722 79.14942831540952 0.4584055231220728
1.6958311548053795 12.970135026724547 158.39913840352182 82.91849139037701 0.4671401059151544
1.7192970310236515 12.950894801776277 143.31418745353275 86.88650026337814 0.4761881363991468
1.7422979876266314 12.929993796545634 129.80625293439977 91.06507619850409 0.48556414022808425
1.7647785508332101 12.907350979064494 117.70484461800126 95.4682091404698 0.4952896526989296
1.7867060140724258 12.88292023990497 106.84408100471792 100.10966115939377 0.5053825782764798
1.8080453434088652 12.856670928732672 97.10597748078827 105.00590292570308 0.5158684158417808
1.8287574204831374 12.828543538287223 88.35006218881581 110.1734690091338 0.5267696933789869
1.8488377650576817 12.798585302443195 80.48359637194751 115.62993128667779 0.5381095835133172
1.8682252122801948 12.766683077395744 73.39722084187525 121.39559467667057 0.5499177913734153
1.8868964086886304 12.732841679135856 67.0241124650325 127.4918220299278 0.5622239123715251
1.9048215121992182 12.697033764916716 61.270751239136075 133.94110047714938 0.5750574281562097
1.921964284738736 12.659226191506386 56.08690305972106 140.76898378065854 0.5884541991463442
1.9382797711925825 12.619347753102469 51.40310267451249 148.00320207356916 0.6024527045660548
1.9537798217354152 12.57751135216951 47.173493295983214 155.67232090221603 0.6170889626378337
1.9683976663312783 12.533594528762194 43.34853634953104 163.8098966302001 0.6324102884332785
1.982115603839219 12.487604249411673 39.88911720127845 172.44961218216346 0.6484579715414777
1.994909122284371 12.439536588031702 36.75386674730394 181.63089068608605 0.6652856648063307
2.0067474323416916 12.389387099369971 33.909852409880706 191.39564183401652 0.6829475107821223
2.0175979826381254 12.337124126813084 31.33515203164158 201.7898780446447 0.7015027144770023
2.027438020083369 12.282748689648205 28.997698130574804 212.8636068442612 0.721014189469213
2.036252094274959 12.226293642858016 26.875942952566497 224.67212422147438 0.741551693825823
2.0440010021557997 12.167710388807155 24.948075285794783 237.27673097560088 0.7631928693792505
2.050664121034112 12.107017417587867 23.192869649454046 250.74417670797794 0.7860199978444395
2.0562406945609752 12.04428306631628 21.597868402052473 265.14745722254884 0.8101209747320519
2.0606925002947394 11.979444631007487 20.145904092733396 280.5684939423971 0.8355961661757579
2.0640029031701883 11.912560031290568 18.825355133763026 297.0967389883642 0.862551730245722
2.06616900135467 11.843672448927947 17.622146026622683 314.8326113585589 0.8911083947533562
2.0671676964535646 11.772791804621155 16.527334793862146 333.8855424291791 0.9213922268161754
