M[M_sun], R[km], Lambda[1], P_c[MeV/fm^3], rho_c[fm^-3]
0.24162668629717493 15.618656898711224 2160425.4255784233 3.5677272577965504 0.1711233750220791
0.25364552855991906 15.27723633472892 1723131.0967083818 3.7848538656669057 0.17388860008330811
0.2660431979348283 14.981209456664558 1382908.854037757 4.011473507479303 0.1766675314775321
0.2788209594207961 14.723381141678251 1116341.9268858992 4.247841210743479 0.17945882480344214
0.2919777324468606 14.498262856866914 905748.6387398717 4.4945826337571395 0.18226905491964193
0.3055149976521591 14.301109438448227 738517.3983087289 4.751855178774982 0.18509396327120595
0.31943339607288895 14.12801729218292 604982.737807081 5.020338256605272 0.18794010539118874
0.33373556717968034 13.975759390052593 497562.50825586193 5.300259830752247 0.1908041806134696
0.3484183400795799 13.841881276818459 410916.0011429985 5.592344110137436 0.19369239611685013
0.36348477087744024 13.72381683307943 340564.2211733715 5.896763974313082 0.19659991812660002
0.3789395974161377 13.619866212290795 283223.43729848 6.214381271161019 0.1995343801047828
0.3947752991109641 13.52831699238282 236344.2607949523 6.545448652549627 0.20249187530840512
0.4110032898095068 13.447736763201936 197811.0871319602 6.890678144667259 0.20547627715871333
0.42761354876127067 13.376942467152825 166024.73351925652 7.250770797205384 0.2084905833082618
0.44461238370430556 13.314809449721443 139757.51477595922 7.625978892901444 0.21153023270307714
0.46199543888390426 13.2604575782961 117929.52426014336 8.017264916433657 0.21460159458553307
0.47976498009248686 13.213063993476661 99773.34336946129 8.425328042349726 0.2177062179247547
0.49792613424069104 13.171894950616586 84610.67388426689 8.850600228744694 0.22084144058838026
0.5164692369068834 13.136303742130892 71907.83468750613 9.29397272818638 0.22401092253015362
0.5353909057093702 13.105766097307807 61249.58024593466 9.756322473998512 0.22721746279197574
0.5547015025337241 13.079731859268275 52280.364061895954 10.2384521362214 0.2304623178463784
0.5743872606593282 13.057796579945496 44710.47639933224 10.740842163325832 0.23374230325854514
0.5944485725696885 13.039467972658613 38309.99039869384 11.26474116036062 0.23706364739858996
0.6148889261271595 13.024464821844917 32885.87329839533 11.811082473921543 0.2404279041612493
0.6356977241148513 13.012399549069057 28276.759456779386 12.380845746878448 0.2438367076413545
0.6568728046366724 13.002986140523431 24357.785933415864 12.974702517128021 0.2472878087018169
0.6784086196565056 12.99595779686152 21016.241911481156 13.594014907473596 0.25078638514849355
0.7003024265333017 12.991038167692366 18162.22342682356 14.239964707622072 0.25433488498882767
0.7225398400509383 12.987992421367563 15720.794737552895 14.913742437640808 0.257935294434144
0.7451328466086398 12.98663811104042 13625.906892790439 15.61635363334985 0.26158726434285834
0.7680580967878677 12.986751697629325 11828.663162660825 16.349113427770476 0.2652931748304997
0.7913080804699221 12.98814233443318 10283.492461316115 17.113615690631505 0.26905748244381017
0.8148856717720326 12.990682618605915 8950.491147891684 17.911316563952855 0.27288262192076657
0.8387741943743817 12.99415349128499 7802.654338618664 18.743547293496377 0.27676936457780293
0.8629599099522369 12.998427374660327 6809.65777395547 19.611721562198177 0.2807188051760311
0.8874456829667043 13.003380862627443 5951.42506209319 20.51789364422072 0.2847370073120846
0.9122067689956016 13.008878841043797 5207.532428205883 21.46385911818746 0.2888269872159417
0.937229170045454 13.014777378857481 4562.307750504277 22.451058625726777 0.2929883116035972
0.9625186659474809 13.020980656624463 4001.5294388896514 23.481606258795473 0.2972254853976758
0.9880450007902117 13.027364055445135 3514.048647624264 24.557883974558337 0.30154426803581763
1.01379275182743 13.033827630084433 3089.901479937581 25.681782425008272 0.305945901373102
1.0397612978304223 13.040288322661109 2719.359222537528 26.85536856208043 0.3104324214529078
1.0659151503195783 13.046616580906784 2396.3094259353534 28.08169113972732 0.3150121888561946
1.0922533750784629 13.052741364912897 2114.0041483477576 29.36274340433243 0.31968521750281015
1.118756250380418 13.05857480024598 1866.9351490501986 30.701407877326698 0.3244570536667967
1.145392630222651 13.064033223092933 1650.7130736533666 32.10095642900598 0.32933488418743306
1.1721592324023613 13.06903234882805 1460.9700921055971 33.563468650537004 0.33431730027948825
1.199019638170331 13.073491855261949 1294.4443816433297 35.09342439502392 0.3394174390996955
1.2259698365439968 13.077359424863962 1148.1028747371358 36.69276802837622 0.34463157346740614
1.2529693411786929 13.080517079773234 1019.3576262431 38.366630410364 0.3499746216674739
1.2800165983998768 13.082952112822957 905.9342694990959 40.11734214366834 0.355443670643503
1.307070614734162 13.0845497394711 806.0980264283038 41.950207587842264 0.3610522974709809
1.3341046919388844 13.08523736425738 717.9602378744893 43.868891053040386 0.366803437212739
1.3611151152591645 13.085028734090676 640.0562483639744 45.87790361363872 0.3727038460294162
1.3880563239369037 13.083781073925259 571.2646238662704 47.98267237815435 0.37876398869326244
1.4149029709519771 13.081450119102822 510.36003320992216 50.188064487186914 0.3849900640272057
1.4416363182050067 13.077999678732228 456.4702125137261 52.49909861628331 0.3913879847113544
1.4682322417332807 13.073391531636418 408.64272342363546 54.922298196955595 0.39796998150305024
1.494643327665168 13.067516232262134 366.2015030638588 57.46385938258101 0.40474512596705714
1.520857372930725 13.060358843039436 328.5517936936574 60.13041699848095 0.4117232006213662
1.5468436348626395 13.051860291179539 295.0371843831598 62.92908403731965 0.41891475748977547
1.5725616246476442 13.041965204210268 265.217887212942 65.86749493681789 0.42633118143710147
1.597974065982031 13.030617602120607 238.67449452778166 68.95385302388291 0.43398475884683496
1.6230834995973245 13.017798427981559 215.0240882385238 72.19698255700816 0.4418887522696154
1.6478255241875774 13.003432311754317 193.90603301491652 75.60638585294733 0.45005748174686633
1.6721739249189704 12.987484228676674 175.07706066984514 79.201205157927 0.45850344431054124
1.6825798175138673 12.968773459602286 166.13273581308638 84.11470567778332 1.6812138337724463
