M[M_sun], R[km], Lambda[1], P_c[MeV/fm^3], rho_c[fm^-3]
0.24162668629717493 15.618656898711224 2160425.4255784233 3.5677272577965504 0.1711233750220791
0.25363366733887205 15.27755529879734 1723473.3229953006 3.7846318063071256 0.17388583222051343
0.26601858862801037 14.981718995242423 1383484.6701724203 4.011006707303787 0.1766618904728976
0.2787819440510997 14.724155028982533 1094585.407711402 4.247113890471177 0.1794503889843317
0.29192451451424395 14.499098014732917 906509.0133250374 4.493575721703742 0.18225784272023524
0.30544668159801874 14.301987090927621 739320.9158512172 4.750534501570114 0.18507969743684302
0.319348819874636 14.128973280338927 605664.7214669742 5.018694100304029 0.1879230466349773
0.3336331662095284 13.976823808823884 498261.6626453628 5.298248928106684 0.19078393416051967
0.34830031140546086 13.842858777503107 411540.64193955413 5.58996145532767 0.1936693432761199
0.36334568808227213 13.724842389997006 341137.0009045833 5.893956060227845 0.19657354560329351
0.3787830255859141 13.620831340584793 283745.53922426805 6.211114139904393 0.1995045878016045
0.3945974307204121 13.529272345810442 236810.31823289642 6.541725711068919 0.20245923014106687
0.4108050857655236 13.448651005855773 198226.7264828873 6.886427551706285 0.20544007732536557
0.42739342875511105 13.3778152850301 166408.2101730381 7.245952692174522 0.20845072436011602
0.4443711843794701 13.31564373535778 140091.80703731618 7.620606606189925 0.21148746584648442
0.4617328753293269 13.261236191250362 118237.69748994602 8.011244782221075 0.2145550239803293
0.4794776867447424 13.213754467094326 100039.1275706417 8.41861314842593 0.2176557313096973
0.4976120463535332 13.172553614846953 84844.75308672882 8.843215345158088 0.22078797087589525
0.5161282571985589 13.136904396413554 72123.06706495906 9.285798396940468 0.22395337472857224
0.5350256142402059 13.106302444222214 61438.48661905666 9.747303309386645 0.22715571281692087
0.5543104596885989 13.080237409742317 52443.683552544266 10.228536796642365 0.23039633146880334
0.5739656946394351 13.058197135180157 44855.04635663592 10.730058952931751 0.2336730717075946
0.5940049504001956 13.03984390044832 38439.737444405015 11.252935398794918 0.23698988478668684
0.6144139389010601 13.024765899851277 32998.18882381367 11.798184467862564 0.24034946276456273
0.6351913672401807 13.012659199633571 28383.177142968238 12.366781457120691 0.24375343193808677
0.6563324555983718 13.00318244902315 24449.479226021645 12.95953652583614 0.24720112611469994
0.6778423284706369 12.99611389961287 21096.15156199302 13.577531961976048 0.2506946125240086
0.6997044545133129 12.991146496043147 18097.31533377998 14.22207649316098 0.25423784055234167
0.7219097611652974 12.988050776957461 15783.478283752882 14.894354967739952 0.25783278557261613
0.7444702883571817 12.986659100250842 13682.01128702454 15.59555595873365 0.2614809604258631
0.7673614648549094 12.986737817057302 11878.814461381724 16.326624056391367 0.26518107095470395
0.790579070204984 12.988086779969692 10327.224694130113 17.08932183679193 0.26893934965917743
0.8141203361915941 12.990561326816824 8990.430143674754 17.885097967887347 0.2727582165571552
0.8379779928531756 12.994027428196693 7838.222329805976 18.715478786296934 0.2766402273513596
0.8621333328708295 12.998274564535725 6841.610420123901 19.581521787488775 0.28058331783291124
0.8865754926399703 13.003186181915336 5943.567995042211 20.485375936318643 0.2845945096741074
0.9113074328310546 13.008671796624911 5232.774379333861 21.42886829620926 0.2886771666491178
0.9363008258701949 13.014564012883621 4584.512998307028 22.413740394189126 0.2928333129155687
0.9615451603877239 13.020734042764852 4021.5104195075237 23.44149259462045 0.2970625718885301
0.9870417575735356 13.027127413372359 3531.773987827387 24.51478621532584 0.3013730610978539
1.0127548294189692 13.033570880713045 3105.648002947281 25.635843925333056 0.30576853412435473
1.0386839516998365 13.04001083654056 2733.840087383594 26.80607517043822 0.31024619989552216
1.0648132162875201 13.046355204677209 2409.2371314086668 28.028788904098146 0.31481648048294714
1.0911134062106227 13.052484864585288 2125.461159644488 29.30641972684528 0.3194824868467706
1.1175827182175524 13.058332817787699 1877.2410933874844 30.64099078354463 0.32424392845355043
1.1441897061961919 13.063793652866575 1659.7829070341443 32.03633908855956 0.3291119430894414
1.1709212702999985 13.068821471935665 1469.1393057108646 33.49450505392951 0.3340848858484766
1.197748843523844 13.073288124891816 1301.7405738599643 35.019485413136714 0.33917294293149786
1.2246706909084777 13.077187559960231 1154.6063763984043 36.61406810004502 0.34437769968109677
1.2516461887312866 13.080389792439139 1025.2956162099495 38.28235887554353 0.34970792186282357
1.2786593402541813 13.082844036772075 911.3241838611908 40.02753053894355 0.35516582354260307
1.3056792883987405 13.084475804746655 810.8996076045088 41.85457908267103 0.3607631980121932
1.3327010486992443 13.085249669623252 722.2730273803869 43.76637436788414 0.36649870460672923
1.359680479240451 13.085066030882837 644.0172261436751 45.768713408119865 0.37238633574413565
1.386592741897037 13.083858106460479 574.8045153018227 47.8663301749055 0.37843281148493935
1.4134207718578908 13.081600322601847 513.5483275294249 50.063320736481344 0.3846405182906832
1.440143439191998 13.078245919570092 459.30507116503827 52.36613872594085 0.39102292666823996
1.466710557620449 13.073676360101377 411.23679580176645 54.78053393548989 0.39758837760693105
1.49311078878809 13.067894744320927 368.5418657938607 57.31265489556448 0.404345862814986
1.5193111159954045 13.060823066553061 330.6443515458286 59.96908454718496 0.41130507840032443
1.545284123396835 13.05240884942948 296.925729114885 62.7568793123947 0.4184764827739588
1.5709923645738235 13.042613415954266 266.93759564604744 65.6836118997188 0.4258713592664295
1.5964103089873873 13.031373387336663 240.23628686700187 68.75741822298768 0.43350188400888917
1.6215051397926599 13.01865164567628 216.4400279356888 71.98704885886426 0.4413811996979496
1.6462378882106947 13.00439793912242 195.20220204518813 75.38192552169734 0.4495234959381543
1.670601894159034 12.988573834916398 176.2298576878143 78.95220309469173 0.45794409693902866
1.6945346198223037 12.971130867031718 159.2718767561508 82.70815501594831 0.4666567535393162
1.718025904834019 12.95203924069464 144.10481606740763 86.6612657840867 0.4756780911210239
1.7410286966972461 12.931236117141227 130.5348706974113 90.82484981047544 0.48502972493887536
1.7635162325110463 12.90869908981763 118.35901704296671 95.210679699902 0.4947245756027941
1.7854535866578232 12.884383644749006 107.43633591406173 99.8346045214251 0.5047890179847379
1.806803612190335 12.858233222786021 97.64908988589521 104.71157945654835 0.515242897312246
1.8275506929986773 12.830291732670528 88.84862394083056 109.8577643831444 0.5261076942194755
1.8476353229028661 12.800416224510556 80.93239358598137 115.29193287245852 0.5374113954238261
1.867061467815956 12.768687248228087 73.8107784147425 121.03349738141775 0.5491806939741357
1.8857505344537648 12.734968074088489 67.3983849002982 127.1035955973899 0.5614447450191346
1.903706716276723 12.699306686786901 61.61716218486498 133.52526559709926 0.5742353781103232
1.9208807962048662 12.661630575974739 56.40504749357963 140.3231001969563 0.587585448364335
1.9372600715624846 12.622003482410797 51.693567530387774 147.52392084140365 0.6015307832702563
1.952804240793257 12.58034058581586 47.438022411321285 155.15828943144922 0.616114821545455
1.967461537207347 12.536570624750027 43.590064454789875 163.25648473820124 0.6313742023092125
1.9812299364649577 12.490756496129979 40.10858541782931 171.85478513804296 0.6473596884415527
1.9940842443073266 12.442896750666318 36.953401328891566 180.99097534634478 0.6641200501420634
2.0059612719596354 12.392882474727758 34.097592907080326 190.7064887821127 0.6817086120755671
2.0168722426650905 12.34080058645085 31.508296033605426 201.04691037869026 0.7001840201576502
2.026777238704471 12.286627445412668 29.155782298748555 212.06243688618554 0.7196107499679462
2.0356530726913986 12.230357437150637 27.019416241638577 223.80776680138447 0.7400576314477658
2.043479871932987 12.1719963542491 25.07955158404865 236.34273366248527 0.761598694585779
2.0502232493080403 12.111519893871915 23.315535913844897 249.7338757637736 0.7843168588198266
2.055859463320447 12.048934542086865 21.710772170239476 264.0543150447865 0.8083019226380335
2.0603935920675593 11.98432192747176 20.250415500180008 279.3844427002599 0.8336509602890239
2.0637990369142165 11.917670822633559 18.920245166872938 295.81348856740874 0.8604713347206072
2.0660449398086778 11.848977617986376 17.709952082391535 313.4395538141954 0.8888783836181616
2.067131083498296 11.77830926032075 16.607394225733533 332.37243644421716 0.9190019044250576
