M[M_sun], R[km], Lambda[1], P_c[MeV/fm^3], rho_c[fm^-3]
0.24162668629717493 15.618656898711224 2160425.4255784233 3.5677272577965504 0.1711233750220791
0.25364450105850056 15.277255384793074 1723139.3700669135 3.784828934066238 0.17388828932293318
0.26604030619625707 14.981266429930686 1383027.0658873569 4.011421095792565 0.17666689811322914
0.27881696846465476 14.723495917342525 1116365.6402740837 4.247759545301222 0.17945787760737913
0.2919713622595323 14.498390476904369 905863.5319242494 4.494469571078445 0.18226779594047418
0.30550720272507653 14.301217209957398 738667.208291417 4.751706879260408 0.18509236135341467
0.3194247207849171 14.128106064145841 605041.0804569933 5.020153627301997 0.1879381897909069
0.33372224323248134 13.975925301994943 497675.68350320804 5.30003401017864 0.19080190697499746
0.3484049307669394 13.84199448961298 410986.279676759 5.592076533920002 0.19368980724333879
0.36346797637296335 13.723958820454353 340669.93080131983 5.896448630157071 0.19659695634755284
0.3789227105569829 13.619965674726748 283287.8978511835 6.214014342162766 0.19953103415413
0.39475526663489424 13.528419264054968 236400.615309228 6.545030519122595 0.20248820884312063
0.4109808668159749 13.447845468081871 197852.36701031547 6.89020073369837 0.20547221132656454
0.4275910427669983 13.377008389575117 166066.71572792018 7.2502296277848215 0.20848610635233536
0.4445854436721787 13.314920769275176 139792.4824341235 7.625375460255885 0.21152542899121257
0.4619678148477476 13.260566800746409 117973.6850739487 8.016588693849517 0.21459636345714228
0.47973372500626016 13.213138803756799 99803.92001738987 8.424573755617917 0.217700546743005
0.4978916591528025 13.171957534073174 84633.2609202707 8.849770658618276 0.22083543414621695
0.5164300179293042 13.13638775386945 71932.28382173245 9.293054447788432 0.22400445777890393
0.5353497515690239 13.105833382505445 61270.21647039573 9.755309255798432 0.22721052576385034
0.5546575766526524 13.079804714525247 52302.009051095345 10.237344782085545 0.23045498921584864
0.5743408191848324 13.057823446251962 44724.84601261914 10.739630700946867 0.23373452529480812
0.5943981563155937 13.039509862541696 38321.45261964129 11.263414776315702 0.23705536012707468
0.6148359502769639 13.024492956935518 32897.58522588852 11.809633330832453 0.24041909095342576
0.6356414466063652 13.012439960639098 28289.050119798398 12.379265518339022 0.24382735099091493
0.6568129257636447 13.003014965603734 24368.09450860191 12.972998459911986 0.2472780690095516
0.678345357541876 12.995985289783276 21025.68120160659 13.592162819831547 0.2507760732207066
0.7002346552120305 12.991063787793534 18170.57503451635 14.237954656715088 0.2543239803645567
0.7224699595608082 12.987994878416748 15727.86166337785 14.911563852332455 0.25792377543239475
0.7450584572025302 12.98664694097821 13632.002659409603 15.614016522692578 0.2615753185834451
0.7679797636245839 12.98676468626221 11834.428883079998 16.34658613715313 0.2652805769206386
0.7912260938562309 12.988145181210838 10287.215408769382 17.110885533168872 0.2690442066125782
0.8148007197378261 12.990666430053768 8955.111460323238 17.90837001151246 0.2728686407401255
0.8386848125109573 12.994135271782136 7806.689915069352 18.740397416335075 0.276754892522037
0.8628665407556415 12.998406438008255 6813.220092128192 19.6083273970069 0.2807035776974058
0.887348960554075 13.003361081540781 5954.44736488255 20.514238851100032 0.2847209914419451
0.9121048292712656 13.008850206820318 5210.445180199333 21.45992623815745 0.28881014776256403
0.937125929419348 13.014741250564684 4564.477447812817 22.446864043568002 0.29297088969734253
0.9624107949262445 13.02095199316016 4003.942646466247 23.477097325549543 0.2972071732800295
0.9879323871932697 13.027337110715884 3516.0671720861174 24.55303946197022 0.30152502308710316
1.0136757374575214 13.033799834176422 3091.674970624455 25.676621087969956 0.30592598277945376
1.0396405151939827 13.040257823751885 2721.002569547282 26.84982728970956 0.310411487523705
1.0657921052593777 13.046580164565752 2397.758159720277 28.07574398715683 0.3149901877528162
1.0921253231775727 13.052715689062502 2115.340653071884 29.356411452409947 0.3196624263637275
1.1186246944927891 13.058544371908555 1868.3153788278912 30.69461551330868 0.32443309316258895
1.1452561606350244 13.063998652744113 1651.8154400188118 32.09372582523715 0.3293100405450692
1.1720199852891355 13.069015374608258 1461.7985667774872 33.55571497480207 0.3342911695928241
1.198876726813556 13.073468845151059 1295.1780296453985 35.08511104246484 0.33938994909653764
1.2258236399734102 13.07733556573052 1148.855189035848 36.683919127843176 0.3446030282840669
1.2528197986982477 13.080495543622646 1019.9565720200978 38.357210042906 0.34994495783344676
1.2798645045183004 13.08293356029567 906.5436844893048 40.10724321260262 0.3554124279246205
1.3069082718362441 13.084520556542474 806.6014388060771 41.93945425398557 0.36101978851360916
1.333945063523321 13.085235343912343 718.4669464639313 43.8573627254585 0.36676916906115364
1.3609544457960703 13.085032377320552 640.5012872579593 45.86562445277437 0.3726681398976206
1.3878868557807529 13.083769805054665 571.7047599294858 47.96958992392547 0.3787267518054189
1.4147428142371161 13.081478547451743 510.71984609689247 50.17403525102788 0.3849507525614343
1.4414676274267844 13.078028851688803 456.7831594056009 52.48414487394423 0.39134692733757437
1.4680618178794838 13.07342471914426 408.9302498441722 54.90635371887571 0.39792706183561105
1.4944719201235217 13.067558985136161 366.4588439982285 57.446852573728755 0.40470021862175937
1.5206844739963132 13.060409794057945 328.77026363656273 60.112270417888766 0.4116761704763422
1.5466680482854962 13.051922878635608 295.228426837761 62.90971386967019 0.418865458873111
1.5723841013418056 13.042039510664615 265.4110275398807 65.84681041074026 0.42627945723333377
1.597808648317346 13.030707224664487 238.87298814735064 68.93175577096831 0.4339304395135419
1.6228957298324458 13.017882022466857 215.1885825948527 72.17336590481833 0.4418316547542614
1.6476474010999334 13.003542066337682 194.05452630475278 75.58113404445416 0.4499974082928864
1.6719964041572097 12.987606340409608 175.186682493189 79.16496003793962 0.4584417584530411
1.6959335244503824 12.970053282926163 158.33053407760212 82.9351157736091 0.46717830869940374
1.7194137442860402 12.950839964630141 143.24788315551308 86.90430288720093 0.47622845058304786
1.74239243470312 12.92988714013341 129.7630071691441 91.08406447305178 0.48560638214962026
1.7648786151937896 12.907244919881764 117.6584332460781 95.48856599105798 0.49533432017458395
1.7868043806281986 12.882805989758984 106.80504142852483 100.13140431144883 0.5054294990553148
1.8081428198423612 12.856545749957725 97.06410490695981 105.02914513096525 0.5159177707133726
1.8288522603219144 12.8284077666381 88.30969601597177 110.19833325261317 0.5268216778980205
1.8489313596783197 12.798437121507755 80.44624365614729 115.65665341439097 0.5381647822080752
1.8683073116327125 12.766495593367855 73.37304777483216 121.42422330861365 0.5499760687768283
1.886984866683546 12.732672042315215 66.99371870201121 127.52248178916663 0.5622853897296968
1.9049083939030276 12.69685211688809 61.24553199484842 133.9739266355255 0.5751222371852759
1.9220483604819931 12.659032345349521 56.06258067727205 140.80424155988337 0.58852289470813
1.9383618056762426 12.619140477452778 51.38062049459845 148.0411026188359 0.6025256081505451
1.953856952245603 12.577293154217543 47.15430751870707 155.71297128425567 0.6171659991809595
1.9684718158328374 12.533358361951384 43.330953621774505 163.85354319407298 0.6324918205773213
1.9821857305520565 12.487353670590949 39.87072561090308 172.49665681450526 0.6485448343113431
1.9949744645051737 12.439274123907914 36.73851688142302 181.68150393071056 0.6653778575332067
2.0068093439555654 12.389110614405173 33.89703848450834 191.4501523735015 0.6830455050327101
2.017654228497052 12.336832313251172 31.321099738579623 201.84864845465066 0.70160702615754
2.0274900351185927 12.282442934965264 28.985256949897813 212.9268893145346 0.7211248983648864
2.036298506472844 12.225973034076345 26.86289937240245 224.7405045011376 0.7416698907671244
2.044041961370685 12.167373874270922 24.93753666150327 237.35054220303078 0.7633187243024332
2.0506942895169473 12.106664680741563 23.17754589367927 250.82395252495627 0.786154230729566
2.0562714389800743 12.043911514453491 21.589523822407312 265.23395276252893 0.8102649083358637
2.0607153702448655 11.979058679545174 20.137528412455868 280.6620383442806 0.8357496007671157
2.0640201910058487 11.912159847496435 18.81829165970092 297.19822785038195 0.8627161603870781
2.066178685495399 11.84325323855467 17.615168547538396 314.94285965824656 0.8912848805969845
2.0671691113347426 11.772356205414484 16.520065728846227 334.00527732640296 0.9215813385219844
