M[M_sun], R[km], Lambda[1], P_c[MeV/fm^3], rho_c[fm^-3]
0.24162668629717493 15.618656898711224 2160425.4255784233 3.5677272577965504 0.1711233750220791
0.253641598750446 15.2773748374236 1723153.3582234737 3.7847962919674067 0.17388788245491832
0.2660378678880707 14.981280524041528 1382984.0611779497 4.011352475689992 0.17666606887978636
0.2788106267791759 14.723595958988497 1116526.0220106083 4.247652625776973 0.17945663750202215
0.2919640417530978 14.4985266375078 905998.416269452 4.494321546593688 0.18226614765348173
0.30549936444872267 14.301262872245584 738704.2891956902 4.751512723829474 0.18509026410420937
0.31941191943968217 14.128253738085883 605179.1596598165 5.019911910847982 0.18793568188940252
0.33370860469484226 13.976047758965803 497744.80341747095 5.299738369133722 0.19079893036023235
0.3483874989324137 13.84213951912978 411077.71186111204 5.59172623026721 0.1936864179591328
0.363448248126351 13.724130137981632 340726.72934979515 5.896035794043285 0.19659307890340671
0.3788999949436046 13.62009757471199 283351.89975226036 6.213533977889884 0.19952665381035756
0.39472958190528784 13.528560539060434 236463.80541885196 6.544483125556545 0.20248340894103886
0.4109519278726299 13.447995717059978 197916.75471245582 6.88957574373015 0.2054668886497283
0.42755774579303135 13.37715158373689 166129.51319408926 7.249521176847126 0.20848024551928823
0.44455117629919705 13.315025237346994 139844.9902157713 7.624585506547963 0.21151914045175893
0.46192849493957083 13.260685368251393 118012.90545664859 8.015703459093501 0.21458951545062294
0.4796907827447336 13.213236884594165 99837.94690341222 8.423586337212303 0.21769312273698038
0.49784534030942523 13.1720561872641 84670.01158411831 8.848684697420754 0.22082757132315137
0.5163802849231103 13.13647779244173 71961.8190376126 9.291852370104152 0.2239959950770658
0.5352954032628251 13.105920465373488 61297.19342369844 9.753982911626249 0.2272014449095727
0.5545988365434581 13.079870796770955 52319.25085994424 10.23588552621371 0.2304452711409998
0.5742774608419122 13.057911790258103 44747.27699716686 10.738044873884489 0.2337243437938399
0.5943334887396579 13.039559568940751 38343.97922082489 11.261678530314835 0.2370445120306416
0.6147671671085343 13.024529547017934 32914.68868381389 11.807736409500544 0.2404075545067844
0.6355645546436736 13.012468169850775 28306.085784711766 12.377197025435395 0.24381510329094422
0.6567328611324562 13.003054793621976 24381.36892795338 12.970767894249175 0.24726532001090948
0.6782617037058752 12.995995352195065 21037.134618411208 13.589738508031932 0.2507625753021184
0.7001465551523538 12.991075425830505 18180.70919374277 14.235323600688538 0.25430970675720393
0.7223766532283163 12.988011410841585 15736.160358697443 14.908712218865078 0.2579086977713214
0.7449608554717145 12.986650277437082 13640.264044325173 15.610957412116555 0.2615596824393687
0.7678779722824446 12.986752623259056 11841.475126272462 16.343278124387172 0.26526408730667855
0.7911190776192729 12.988125872846721 10294.117641074059 17.10731201686454 0.26902682981288445
0.8146883910444405 12.990663685802005 8960.942887322542 17.904513289709083 0.2728503408709373
0.8385679468741526 12.994117320967709 7761.322640209297 18.736274594753027 0.27673595029007264
0.8627452914114193 12.998386139621717 6818.364253354434 19.603884871351287 0.2806836468865434
0.8872156947132481 13.00333290047557 5958.53849282559 20.509455240792704 0.2847000289198679
0.9119729350442343 13.008825485545172 5213.984739321436 21.454778698579393 0.2887881074887513
0.9369884141955314 13.014708625510696 4567.730417664746 22.441374016852528 0.2929480872519136
0.9622634247283115 13.020908082442412 4006.8493157074126 23.47119591921334 0.29718320591541947
0.9877845024341577 13.027313218771267 3518.647037680233 24.546698900298495 0.30149983504558736
1.0135237425968882 13.033758388157672 3093.900389139287 25.66986591355605 0.3058999132604174
1.0394830337968755 13.04022052303309 2723.1133325094916 26.842574923661683 0.3103840893907064
1.0656331467947835 13.046553987073507 2399.713786845806 28.067960483549502 0.3149613931884459
1.0919575425262726 13.052674460866049 2117.093493406422 29.348124396230688 0.3196325980497606
1.1184522206688787 13.058509554844585 1869.7579986307628 30.685725971359062 0.3244017347273337
1.145080017656228 13.063963789129621 1653.151478262752 32.08426280983243 0.32927752655620807
1.171838267239482 13.068980130790573 1463.0445562209525 33.54556749286673 0.3342569715324528
1.1986897031466948 13.073443585665808 1296.232044225582 35.07423120353507 0.3393539724187279
1.2256332833978456 13.07731093384156 1149.7656064768973 36.67233850277805 0.34456567098024904
1.2526251999158124 13.08048161785986 1020.8677492839394 38.34482360971979 0.34990579644706277
1.279663292643871 13.08292077612178 907.3481796139007 40.094026911725635 0.35537154110498803
1.3067048230625946 13.08451379612601 807.3288979720229 41.92538166856878 0.3609772449559069
1.3337380089791657 13.085231146586223 719.0309460201399 43.84227608997144 0.36672432377825276
1.3607433689424833 13.085040001879635 641.0702815837203 45.84955537683378 0.37262141320760434
1.387672267844897 13.08378355813271 572.2202034568309 47.95246977681306 0.3786780223402333
1.4145260253026113 13.081501645119841 511.173911738504 50.15567631942627 0.3848993088118905
1.4412467262976452 13.078059644750292 457.1826615177233 52.46457630022296 0.3912931993658467
1.467840392984258 13.073469684780358 409.31573233730944 54.88548886223233 0.39787089739398973
1.494246218759329 13.067610276693241 366.79790837406995 57.42459777566962 0.40464145369356763
1.5204570637723178 13.060477317920622 329.07649933691084 60.08852437394892 0.4116146283095102
1.5464390403225405 13.052002435387882 295.509012107277 62.88436693844508 0.4188009489179727
1.572154469470303 13.042132932481245 265.66654859198286 65.81974385324911 0.4262117739743745
1.5975766512311864 13.030818653516349 239.1024073620113 68.90284091252038 0.4338593611836144
1.6226651890250583 13.018017384964976 215.399593319375 72.14246321058825 0.44175694191841586
1.6474162277981925 13.00368483938654 194.24564800710007 75.54809209888411 0.4499188022874137
1.6717650730975653 12.98776706687328 175.35888869844612 79.12978693272673 0.45835970000098586
1.6957032555248892 12.97023526864301 158.48526967682903 82.89746837214669 0.46709179508049015
1.7191663118287948 12.951001327137904 143.40291151820648 86.86398740915752 0.47613715586087213
1.7421727665323907 12.930117833106674 129.88677392181748 91.04106413671755 0.48551072222913144
1.7646530953588875 12.907484895528203 117.77121039148072 95.44246660004323 0.4952331678172038
1.7865820030221236 12.883066616659685 106.90636581462917 100.08216572697818 0.5053232443261826
1.807922464742934 12.856829350809859 97.15921342542754 104.9765120498476 0.515806004255296
1.8286353901030703 12.828715105211735 88.3982789256141 110.14195424524577 0.5267036853849427
1.848718838414117 12.798768205282823 80.52977449851777 115.59614038329502 0.5380397831672726
1.8681089909317692 12.76688543402743 73.44132139717543 121.35939320531958 0.549844098444104
1.8867836996180627 12.733057986248014 67.06012412376235 127.45300678228445 0.5621460104792172
1.904710471944561 12.69726425733082 61.30628821396021 133.89959174112906 0.5749754770229575
1.921858620308237 12.659474702191943 56.118441466190866 140.7244006112943 0.5883673341783002
1.9381777942356622 12.619606998705818 51.43307269965678 147.95527754301204 0.6023605193471342
1.9536825541293914 12.577797103694508 47.20536428646987 155.62091964477958 0.6169915521096533
1.9683047630184913 12.533890511320218 43.37261545979215 163.75463903609807 0.6323069633686621
1.982029233379898 12.487922033398275 39.909643343510034 172.3901265857512 0.648348137891723
1.9948250140858885 12.43986911535478 36.77377987044986 181.56689330156792 0.6651690926830569
2.0066651116090313 12.389725591643916 33.889924710783795 191.32671716494954 0.6828236040779135
2.017526430070294 12.337493228277642 31.35153480351651 201.71556775597674 0.7013708210447223
2.0273727597226343 12.283140931733806 29.013126447715358 212.7835921290047 0.720874208512
2.0361931226497028 12.226701904536725 26.890611589980608 224.5856646608136 0.7414022464169105
2.0439486668296163 12.168138264877745 24.960999883238838 237.1834054467347 0.7630337407795045
2.0506205488687774 12.107464131431069 23.20519475863997 250.6431085560523 0.785849619785627
2.0561986629483546 12.04472858454298 21.609132259394645 265.03809617222174 0.8099389915905645
2.060665087293121 11.979932098104305 20.15657672680502 280.45022181488025 0.8354021723590338
2.0639877764989714 11.913081727416435 18.834578064908605 296.9684237760379 0.8623438366100905
2.066156450525728 11.844200789902672 17.6308890552246 314.69322295896905 0.890885261341201
2.0671636582447497 11.773342497823347 16.533910658632006 333.7341617261891 0.921153133088008
