M[M_sun], R[km], Lambda[1], P_c[MeV/fm^3], rho_c[fm^-3]
0.24162668629717493 15.618656898711224 2160425.4255784233 3.5677272577965504 0.1711233750220791
0.25364108300357013 15.277386987185652 1723229.3314479406 3.7847832090386495 0.1738877193825228
0.26603549850411706 14.981354800698812 1383116.7784378054 4.011324973040015 0.17666573652649234
0.2788082845249623 14.723657467661026 1116561.7006147583 4.247609773233809 0.17945614047709885
0.29196073606494366 14.49854057140824 906030.8077397266 4.494262219969395 0.18226548703775122
0.3054934458955235 14.301387305972568 738792.206477724 4.751434909053835 0.18508942355612074
0.31940661226104616 14.128320970608286 605231.9336339773 5.019815035030257 0.18793467676540299
0.3337032340535824 13.976106756765532 497790.84277586685 5.299619882207904 0.19079773739349473
0.34838105916329604 13.84218249165179 411112.7753440241 5.591585836722467 0.19368505961296648
0.36344008934945576 13.724151160854712 340731.27723864635 5.895870340234133 0.1965915249262174
0.378890556159437 13.62015949598973 283390.4599588125 6.2133414620675715 0.19952489829786219
0.3947187490398672 13.528611004601602 236473.42943716998 6.544263747921861 0.20248148529554735
0.4109402598345915 13.44804923483003 197940.79850749686 6.889325269867045 0.20546475550920285
0.42754555171405234 13.377192331428995 166148.47534948212 7.24923725692109 0.20847789672250255
0.44453669756783626 13.31505731051114 139863.72934493952 7.624268925578751 0.21151662026368312
0.46191315219367474 13.260701637873813 118033.5805101073 8.015348696027754 0.21458677107149576
0.47967325997345933 13.213295525849013 99855.8866233796 8.423190626364917 0.21769014754460167
0.49782644094504835 13.172113763198977 83807.51503075626 8.848249498080365 0.22082442029398058
0.5163604803784247 13.136505479474017 71973.62982268735 9.291370640548077 0.2239926036709587
0.5352742483378398 13.105938461681843 61307.258820126925 9.75345138645176 0.22719780580687546
0.5545762592961279 13.079893003774265 52331.68800698072 10.235300741636259 0.23044137670383918
0.5742547244545435 13.057924294274386 44754.84316303737 10.737409370911832 0.23372026366790127
0.5943056955013031 13.039591443154608 38014.892961097066 11.260982753578272 0.2370401648050006
0.6147384631908546 13.024558804031193 32921.47277946446 11.806976249779623 0.2404029314673827
0.6355349127580894 13.012489911277852 28309.238594725226 12.376368117192447 0.2438101952637303
0.6566994132408648 13.003095172714476 24387.048970474083 12.969874043889718 0.2472602111287954
0.6782286957859633 12.99600397116223 21042.067547253027 13.588767025074887 0.2507571663452894
0.7001102233987327 12.991081325700796 18184.655550523552 14.234269277621472 0.25430398700310886
0.7223403838747977 12.987997745705298 15740.115234025072 14.90756951364234 0.25790265585806277
0.7449218201354799 12.986656090812698 13644.090936165183 15.609731574010995 0.2615534167681037
0.7678359306298124 12.986757077634769 11844.116256611607 16.341952556375084 0.2652574796826022
0.7910761482185972 12.988122606954256 10296.84481283024 17.105880068052347 0.26901986673070927
0.8146429504808465 12.990656471712372 8963.211664537383 17.902967868334407 0.2728430079570174
0.8385195861493185 12.994119071040224 7813.040354051007 18.734622554636104 0.2767283600205239
0.8626952997416741 12.998380440354115 6820.071281491262 19.60210473670497 0.28067566054505755
0.8871662688719333 13.00331801699508 5960.533408590188 20.50753844633718 0.28469162922936014
0.911919680193587 13.008807075517742 5215.449647477179 21.452716092608693 0.2887792760072886
0.936932989672102 13.014697295890112 4569.083886518368 22.4391741902061 0.29293895042441576
0.9622057724873051 13.020891716179397 4008.2251023779245 23.468831272247552 0.2971736023814863
0.9877257545204721 13.02728908922704 3519.632177773857 24.54415830616469 0.3014897424711704
1.0134606610415768 13.033751649483857 3094.6899711208052 25.667159204913787 0.30588946755048424
1.0394196550605503 13.040200783122526 2723.9730156873175 26.839669018874986 0.31037311140568724
1.065567774453461 13.04653595918321 2400.366596651324 28.06484178437287 0.31494985576407725
1.0918890326132817 13.052662577473098 2117.6546484613327 29.344803953790247 0.319620646495737
1.1183826796255814 13.058497628341637 1870.3711908469963 30.682164153664193 0.32438917018461505
1.1450085125987786 13.063951692488478 1653.704960939871 32.08047123952993 0.3292644990941033
1.1717657606461767 13.068966890296416 1463.5776031163734 33.54150170783211 0.3342432694176862
1.198615970506463 13.07342627099005 1296.7195795662162 35.06987202045139 0.33933955778204733
1.225556615946485 13.077305040869062 1150.058268826784 36.667698568786555 0.34455070327143883
1.2525467835096746 13.080473399174185 1021.2238143480865 38.339849555886865 0.3498900397349411
1.2795846281115015 13.082917557844619 907.638125980222 40.08873170129573 0.3553551594929334
1.3066219970134578 13.084512591459477 807.5770649990388 41.91974341990642 0.3609601996760096
1.3336548967767656 13.085230341033592 719.3118949122091 43.83623160897132 0.36670635645474503
1.360658693895062 13.085041684928516 641.2910788613766 45.84311732534241 0.37260269222841064
1.3875857365192263 13.083791232869661 572.4033070607012 47.945610664703715 0.37865849909300053
1.414437647447893 13.081513363552231 511.3582684757131 50.148320959499245 0.3848786982827976
1.4411659646180515 13.078091943343354 457.3681720934894 52.456736365554946 0.391271673842618
1.4677495086238714 13.073488041947021 409.44887051340925 54.87712964993782 0.39784839589786447
1.4941560506327867 13.067634207185634 366.93073808501794 57.415681772448124 0.404617910532777
1.5203657114944114 13.060506220907007 329.20010199742745 60.07901100451731 0.41158997269233966
1.5463472979031792 13.052037160144357 295.6300197960026 62.87421228887305 0.41877510452748146
1.572061837066943 13.042170633699348 265.76315073795155 65.8089003664055 0.426184658500665
1.5974831775203828 13.030864893709998 239.19162961943326 68.8912570524937 0.433830885809049
1.6225714702468186 13.018062965874343 215.48340236094637 72.13008309256519 0.4417270107506439
1.647323154670897 13.003742915431697 194.32387523169817 75.53485508052805 0.4498873117344397
1.6716724072008997 12.98783332081666 175.43897356673858 79.11569625250326 0.45832682660523233
1.695610994833467 12.97030806815724 158.54629269842374 82.88238660683365 0.46705713722772596
1.7190747273380906 12.951083097201366 143.45132127597108 86.84783695232575 0.4761005830223241
1.742081278569131 12.930207182441029 129.93960089280114 91.02383826471362 0.48547240100453826
1.7645660662335427 12.907590518425378 117.81117490636638 95.42399943801259 0.49519264674019164
1.786492532372615 12.883171759790747 106.94669352666533 100.06244119714198 0.5052806796465206
1.807833569673324 12.856943947862446 97.1965377814627 104.95542790964062 0.5157612320393724
1.8285579250114727 12.828860946186023 88.43684839878502 110.11930980597755 0.5266561964082036
1.8486330338302495 12.798903897774297 80.55960028686803 115.57190013838625 0.5379897111859566
1.8680252801980006 12.767029488386765 73.46777289606806 121.33342389531809 0.5497912344456314
1.8867021454870543 12.733214558628275 67.08685590516231 127.42516266598872 0.5620901275599838
1.9046312211109295 12.69742994321438 61.326854468632085 133.86981564408953 0.5749166897620054
1.9217660999552313 12.659601518432872 56.13997957481219 140.69241932857543 0.5883050224776968
1.9381107456121316 12.619826314754366 51.453121887367416 147.92089964032363 0.6022943917409057
1.9536069191623722 12.577978488963257 47.218996213850374 155.58404803568357 0.6169216767195163
1.9682377828765034 12.53410281059129 43.39001934158294 163.714934544364 0.6322326193272052
1.9819664114752256 12.488146681586386 39.92497486278852 172.34745654101158 0.6482693523195575
1.9947636420687807 12.440105651894473 36.78596844704466 181.52098724802428 0.6650854741700037
2.006609278251611 12.389975260886828 33.94510747419374 191.2772771329772 0.6827347251394928
2.017475817814906 12.337757909891799 31.364908245090277 201.66226505912167 0.701276214015682
2.027326150053369 12.283419790084984 29.025196964362195 212.7261981326882 0.7207738011492181
2.036151668092101 12.22699412507585 26.90074460094906 224.52364840931043 0.7412950498497898
2.0439115500470577 12.168447551561627 24.97058378615939 237.11646493987695 0.7629196010660523
2.0505841969700755 12.107797388420789 23.215258867882124 249.79797426797938 0.8085419633728137
2.0542938493186407 12.048961942033117 21.82589843357825 265.80569078245065 1.2438195685113653
