M[M_sun], R[km], Lambda[1], P_c[MeV/fm^3], rho_c[fm^-3]
0.24162668629717493 15.618656898711224 2160425.4255784233 3.5677272577965504 0.1711233750220791
0.2536412226274073 15.277355589585229 1723195.4824599107 3.784785799724039 0.17388775167416637
0.26603627416312925 14.98132048145784 1383097.666211854 4.011330419112119 0.17666580233905968
0.27880872375838117 14.723678170712882 1116512.09652886 4.24761825887417 0.17945623889773946
0.2919611080476007 14.498528111209511 905990.8828683196 4.494273967777766 0.18226561785232395
0.3054940209969354 14.30138297913867 738807.0145274163 4.751450317841497 0.1850895900004356
0.31940763663780025 14.128302482045072 605216.7099724003 5.019834218228335 0.18793487579848708
0.33370286240106684 13.976185019564968 497795.7198632795 5.299643344760916 0.19079797362247214
0.3483818302294214 13.842178342802843 411094.88940908783 5.59161363713456 0.1936853285896011
0.36344305972417834 13.724145384898835 340739.64720044425 5.895903102964518 0.19659183264071453
0.37889275454349913 13.620141018082426 283380.5831964838 6.2133795834793135 0.19952524591923612
0.3947208700995736 13.528609765032211 236485.82821009457 6.544307188359551 0.20248186620950073
0.41094257050735955 13.448038416595349 197935.59742095732 6.889374867791284 0.20546517790593863
0.4275469813945076 13.377198521663143 166140.2674035273 7.2492934776159315 0.20847836182190285
0.4445395930265669 13.315074574870412 139860.30202015833 7.6243316135864125 0.21151711930053235
0.4619162721582601 13.260719241876643 118030.11609425131 8.015418944571131 0.21458731450077229
0.4796771641825594 13.213271393725083 99853.02689230237 8.423268983066153 0.2176907366774543
0.49782968251173193 13.172096350893403 84676.36184802347 8.848335673969084 0.22082504424423502
0.5163644097168082 13.136505592853162 71971.66307291584 9.291466029946461 0.22399327521827017
0.5352790627039886 13.10593082567257 61307.78143821486 9.753556635925278 0.22719852640048296
0.5545815718471991 13.079912938789347 52328.456569927504 10.235416537029607 0.23044214785598693
0.5742600430179057 13.057915388984183 44753.81472036972 10.737535209065852 0.23372107158782984
0.594311959835152 13.039582966694393 38349.87457973958 11.261120526523127 0.23704102561285323
0.6147433318102837 13.024552591411195 32920.36729890323 11.807126771154643 0.24040384688848218
0.6355398345917644 13.012491270142535 28309.397906226008 12.376532251386958 0.24381116711447523
0.6567074188948014 13.00305690501186 24386.10622319922 12.97005103719048 0.24726122274992304
0.6782347445564929 12.99602651953639 21040.213217326655 13.588959390264588 0.2507582373831279
0.7001184079675492 12.991083619548835 18184.270556086485 14.23447804579731 0.2543051195806517
0.7223472601093646 12.98800219626418 15739.15218025607 14.907795782137482 0.25790385222488915
0.7449290899487546 12.986661359804069 13643.00366327463 15.609974303423343 0.2615546574398508
0.7678450150219195 12.986748523101253 11843.52766758941 16.342215032974245 0.26525878806261766
0.7910850643831704 12.988125702781943 10296.156193935516 17.106163608717775 0.2690212454929503
0.8146518118446151 12.990660434985914 8962.601228631169 17.903273877234977 0.2728444599473699
0.8385289369935269 12.994113898005393 7812.58348700592 18.734949674673558 0.2767298629678396
0.8627059364119356 12.998371201742563 6819.572299421354 19.60245722012238 0.2806772419158518
0.8871766704554097 13.00332540135079 5960.230913685279 20.50791798905026 0.28469329244437785
0.9119299505530384 13.008816529524294 5215.205335316321 21.453124506641082 0.2887810247179039
0.9369443066415727 13.014705296051213 4568.810184406621 22.439609774540443 0.2929407595937565
0.9622178712160327 13.020900258403726 4007.796583763737 23.46929949160949 0.2971755039594367
0.9877369571196517 13.027288972288185 3519.372734460023 24.54466136364007 0.3014917408797075
1.0134744180639423 13.033753353063274 3094.511692575783 25.667695153617892 0.30589153587975126
1.0394317493009866 13.040203036241156 2723.746303764584 26.840244408919737 0.3103752851256661
1.0655795617342267 13.046538852574425 2400.2286831678084 28.065459308157386 0.31495214025307605
1.0919032639599244 13.052659273850022 2117.51897130202 29.345461423190546 0.31962301298188983
1.1183957113527119 13.058501709618618 1870.2268133402545 30.682869415693794 0.3243916580421243
1.1450224228677275 13.063956107917864 1653.5200220594393 32.0812219929173 0.3292670786087961
1.171779713559843 13.068969205770307 1463.4712588500531 33.54230675589832 0.33424598251267323
1.1986306816850043 13.073428816085272 1296.6252289295624 35.07073516137632 0.3393424119550881
1.2255716731587212 13.077306336121714 1150.0836230848893 36.66861729847188 0.3445536669511874
1.2525614700787406 13.080476161361368 1021.1378352024315 38.34083444108301 0.3498931596353342
1.2795992737634936 13.082914936790118 907.5896570214009 40.089780175331974 0.355358403121329
1.3066385593378527 13.084517940802488 807.5168645041143 41.92085981520768 0.36096357470813845
1.3336711165349213 13.085232576784975 719.2802864541235 43.8374284375179 0.36670991404813963
1.3606754332326405 13.085038747969362 641.24608004882 45.84439208016157 0.3726063990422624
1.3876030273577709 13.083793191592589 572.3654368414788 47.94696878862574 0.3786623647520946
1.4144549266188589 13.08151306030887 511.3267821202334 50.14977733892816 0.3848827792184537
1.441183957697636 13.078088418745011 457.3354133802663 52.458288689310066 0.39127593594204413
1.4677674613654155 13.073483078720557 409.43039078992575 54.87878478886457 0.397852851234185
1.4941743588605798 13.067627882794676 366.9109888205146 57.41744715380787 0.40462257211220637
1.5203837485683591 13.060498161244116 329.18368526073914 60.08089466179197 0.41159485453078587
1.546364981149618 13.052029822639948 295.601057750011 62.876222916537564 0.4187802217347396
1.5720806316701157 13.042163189709697 265.7437292082775 65.81104738022157 0.4261900273730142
1.5975032145427885 13.030854730082684 239.17890474559192 68.8935506559459 0.43383652393116506
1.6225888179562793 13.018054602967842 215.44860931168964 72.13253435013509 0.44173293710784345
1.647341920771867 13.00373095400883 194.3131786269583 75.53747599858954 0.44989354683639665
1.6716898654895636 12.987820100311545 175.42085073333547 79.11848618998708 0.45833333549746313
1.695629846680307 12.970292854301798 158.5339306349204 82.88537277152733 0.4670639994254949
1.719093262986187 12.951067827887078 143.4425022180494 86.85103470912587 0.47610782436815013
1.7420983078999726 12.930188213945563 129.92652859904092 91.02724894492913 0.4854799885125915
1.7645839392291778 12.90757280547923 117.8030860453056 95.42765588211147 0.49520066979498883
1.7865098875303307 12.883152431932903 106.93768330918843 100.06634658840525 0.5052891073114361
1.8078510571878617 12.856922311312486 97.19154725536555 104.95960249041227 0.5157700967703912
1.828575887688446 12.828838170711425 88.42721011711464 110.1237933088754 0.5266655990241088
1.8486500251662938 12.798877514457077 80.55152243174622 115.57669959323229 0.537999625203504
1.8680415803287316 12.767000040642893 73.46239700136466 121.33856568499726 0.5498017012451624
1.8867178115085108 12.733183953797488 67.07941115922303 127.43067564443061 0.5621011920637278
1.9046476346910544 12.697396300786849 61.32464022861934 133.8757111310487 0.5749283292837952
1.921797360276623 12.659615723751237 56.13701421549618 140.69875141271964 0.5883173597855795
1.9381253286924027 12.619788352677036 51.44933915009781 147.9277062214888 0.6023074845384254
1.9536204263239247 12.57794637806604 47.21431314949025 155.59134833523535 0.6169355115179372
1.9682512661665448 12.534063744439516 43.38716029171831 163.7227957110538 0.6322473388432287
1.9819787131068207 12.488102996021325 39.92076545038744 172.35590484086032 0.6482849511815102
1.994777994962481 12.440060617257917 36.78623423158174 181.53007622477799 0.6651020298671864
2.0066199639330975 12.389925424036786 33.9415014232347 191.28706577719277 0.6827523223025963
2.01748555371828 12.337705905297273 31.361880705302525 201.6728184422242 0.7012949452296836
2.0273351585421264 12.283364382485598 29.022626005522326 212.7375615189522 0.7207936807136371
2.0361597560069544 12.22693822385593 26.898549179397108 224.5359269128005 0.7413162735353821
2.043918893939689 12.168387852748916 24.968559727671376 237.12971834880898 0.7629421993457602
2.0505951431983505 12.107721978838041 23.212054841174417 250.58496792544307 0.7857516078244641
2.0561773967916968 12.044997200402127 21.61584170564091 264.9751855243071 0.8098343046174029
2.060647591703014 11.9802141367343 20.162336787704927 280.38208121277745 0.8352902362779988
2.0639766059654168 11.913375164651335 18.84023076545801 296.89461099937165 0.8622242466860356
2.066149646761097 11.844505571645097 17.635587153837577 314.6130411962334 0.8907569061096002
2.0671618655289663 11.773663014110456 16.540046729119897 333.6470823875158 0.9210155982284219
