M[M_sun], R[km], Lambda[1], P_c[MeV/fm^3], rho_c[fm^-3]
0.24162668629717493 15.618656898711224 2160425.4255784233 3.5677272577965504 0.1711233750220791
0.25364452468035265 15.277271029032104 1723055.6726674242 3.7848425503554735 0.1738884590434098
0.26604223508527575 14.981211147427942 1382954.558104454 4.011449720154942 0.17666724402175552
0.2788191932634401 14.723434346175905 1116307.4522092543 4.247804146354327 0.1794583949123828
0.29197436161498774 14.498343822383019 905747.0079501156 4.494531319405889 0.1822684835224313
0.30551160417455725 14.301135979614704 738583.894750589 4.751787871755468 0.1850932362269378
0.31942944114041416 14.128051714319891 605036.0689202683 5.0202544608033834 0.18793923597740195
0.33372856696322994 13.975869637677167 497624.081509228 5.300157339648958 0.19080314869812298
0.34841226740796505 13.84193226061493 410938.2331667356 5.5922226675158475 0.19369122112607853
0.36347733409512417 13.723876987793028 340613.50038274634 5.896620851317138 0.19659857388513408
0.37893220465029576 13.619908619344997 283259.63180671673 6.214214735338154 0.19953286149860044
0.39476598569738397 13.528369998149184 236362.04791834013 6.545258876486199 0.20249021122870375
0.410993101302642 13.447803472356384 197828.9397725779 6.8904614641220805 0.20547443181626412
0.427603027311114 13.376975152674559 166045.03703376837 7.250525178323644 0.20848855136619993
0.44460103984476423 13.314841701743374 139773.56928804578 7.6257050142529295 0.21152805245293155
0.4619820401661689 13.260489580815493 117949.3808045555 8.016958000098072 0.21459922033954612
0.47974750893152496 13.213138399130875 99793.95892855569 8.424985694380371 0.21770364394661884
0.49790961278558116 13.171929303654219 84621.3791862579 8.850223711188763 0.22083871444040173
0.516451668678138 13.136336299016872 71922.74750270411 9.293555946735513 0.2240079883627562
0.5353715117832096 13.105800438350265 61256.19815785017 9.755862601975348 0.2272143142646807
0.5546802719914242 13.079786654893915 52287.78297236385 10.237951095933258 0.23045901161350738
0.5743660034895941 13.057804498388743 44314.785952825194 10.740292311489782 0.2337387730394349
0.5944253155074609 13.039494114266484 38317.09870705515 11.264139147228898 0.23705988600964875
0.6148663968698823 13.024475748291644 32890.92187240413 11.810424742071879 0.24042390405420197
0.6356726879423744 13.0124321299022 28283.077250548882 12.380128516906819 0.2438324608694719
0.656845527914637 13.003008223574037 24362.322705395167 12.973929082734843 0.2472833880679872
0.6783802243925753 12.995961506296672 21020.61477125142 13.593174283514973 0.2507817047795086
0.7002711450809966 12.991048767372597 18165.8722532722 14.23905238549308 0.254329935596752
0.7225083274602628 12.988001561990625 15724.121796177858 14.912753618995046 0.25793006617722586
0.7450989859945503 12.986648522037 13628.671516073719 15.615292861180516 0.26158184237916665
0.7680223269494989 12.986752512111265 11831.473728256957 16.34796633392297 0.2652874568553709
0.7912702703291294 12.988145871578872 10286.081893370067 17.112376516358644 0.2690514567589408
0.8148468453851957 12.99067185460233 8952.541631599253 17.90997916863783 0.27287627607562515
0.8387343840034196 12.99413260360986 7804.577480216829 18.74211760968137 0.27676279592041125
0.8629155415110231 12.998419539650905 6811.0416979145175 19.61018099625235 0.28071189362821625
0.8874015881487959 13.003366824352602 5952.699972773288 20.516234779170826 0.2847297379082249
0.9121603809908915 13.00886778255612 5208.950545659684 21.46207402906811 0.2888193439812712
0.9371832543578001 13.014761445845275 4563.175520131659 22.449154749651317 0.2929804039862824
0.962470912541975 13.020967880711522 4002.70331451703 23.479559697614313 0.2972171737046265
0.9879927181413787 13.027358307898563 3514.894541458231 24.55568509228576 0.30153553292040713
1.0137382114449625 13.033810907084836 3090.7050812050265 25.679439734659745 0.3059368604798704
1.0397060151112165 13.04027160489192 2720.0427884105197 26.852853416413314 0.3104229196854785
1.0658608096552562 13.046595328444344 2397.0833584227266 28.078991761684357 0.31500220268303414
1.0921957010683894 13.05272671091804 2114.606163395789 29.35986936281168 0.31967487271800593
1.1186962918557872 13.05856345650662 1867.4169623400014 30.698324849918748 0.32444617808784
1.145330383765171 13.064019000868939 1651.2650668890808 32.0976744801316 0.32932360773435965
1.1720972374295904 13.069024937434873 1461.319790973925 33.55994927259978 0.33430543961297676
1.1989551203590312 13.073478963589995 1294.7334386761745 35.089650971882044 0.33940496141234267
1.2259038633681016 13.077350189877437 1148.3928079679245 36.68875151266829 0.34461861680947564
1.2529021367935076 13.08050455372862 1019.618632416833 38.36235449737874 0.3499611572274003
1.2799468979625859 13.082947972676346 906.19770994279 40.11275821872017 0.35542948951110376
1.3069990627253982 13.084548680620108 806.3467057833117 41.9453266182068 0.3610375415603092
1.334031993803294 13.085244007446672 718.126074827104 43.863658298167394 0.3667878827590749
1.3610432745083902 13.085029192338824 640.2763481423808 45.872330040718815 0.37268763883647776
1.3879825196974573 13.083786055682852 571.4479210441026 47.97673417357233 0.3787470866461279
1.414827342058739 13.081457655625735 510.56554516956066 50.18169651563873 0.3849722202691627
1.441559772995767 13.07801139243982 456.6029533080212 52.492310989557815 0.39136934843147014
1.468154870631969 13.073407056273986 408.7650306725949 54.91506085063989 0.3979504998683767
1.4945663897744985 13.067534947472097 366.3092394193045 57.45613981653475 0.4047247420595881
1.5207787586403128 13.060381704645039 328.65992571851507 60.12218005871266 0.41170185310248303
1.5467630814640936 13.051889057724441 295.1191136672821 62.920291676091914 0.4188923802314272
1.5724809448024621 13.041999104912135 265.30552397798516 65.85810594855946 0.4263077031161562
1.5978942058804682 13.030656488962896 238.77644131697446 68.94382275418617 0.43396010249861
1.623003600857566 13.017842874049293 215.09826437400747 72.18626258165905 0.44186283479612376
1.6477452042098097 13.003481188222644 193.97277301012622 75.59492362355168 0.4500302133747696
1.6720932862163578 12.98753947168462 175.1276870676164 79.17963913900333 0.45847600462788285
1.6960296702646562 12.969977840680134 158.2627834250342 82.95082764360737 0.46721441453089935
1.7195097710338707 12.950755381242763 143.19095218174567 86.92112842328355 0.47626655214395375
1.7424911783371437 12.929807410947227 129.6988867294004 91.10201067809975 0.4856463058500914
1.7649728908620006 12.907143105286556 117.6006615217821 95.50780578448118 0.49537653657739156
1.7868846708925525 12.882668035857552 106.75689442794635 100.15195444703413 0.5054738453563654
1.8082353586903346 12.856427136477572 97.02616031320201 105.05111219281467 0.5159644178152546
1.828939693670749 12.828272230135024 88.27827307353766 110.22183349942372 0.5268708106628534
1.849020229626674 12.798296685618105 80.4156446989145 115.68190979982461 0.5382169531850726
1.8683917861851438 12.766346513290085 73.33583592224832 121.45128179215244 0.5500311499334852
1.8870678803068595 12.73251375956792 66.9635645556145 127.55139142148367 0.5623432500698953
1.9049888226609784 12.696680503425817 61.217168508088776 134.00495280959555 0.5751834924864317
1.922127532113153 12.65884790505892 56.0389774747002 140.83756624793926 0.5885878238732013
1.9384377207804118 12.618941650088415 51.36061536272536 148.0769254303005 0.6025945151106933
1.9539300804313418 12.577082554876384 47.13531510866883 155.75139343509915 0.6172388130029194
1.968542064429859 12.533139561578402 43.313709441789015 163.8947975723098 0.6325688840987155
1.9822515996642496 12.487121014646053 39.854840493349805 172.54112336595975 0.6486269369367317
1.9950354997429527 12.43902339700093 36.72359905209962 181.7293438814111 0.6654649986667461
2.00686845086598 12.38884695194852 33.88336417464166 191.50167646223622 0.683138130504967
2.0177083797102586 12.33655505788879 31.30869249182204 201.9041994671668 0.7017056237251006
2.027539062464078 12.282158710569961 28.97273998672768 212.9867056681641 0.7212295434968624
2.036342365390126 12.225667846780276 26.853564766452592 224.80513999434027 0.7417816147558781
2.044080246452601 12.167055911316819 24.92757729201323 237.420311791218 0.763437687859436
2.050732310737809 12.106329010516188 23.17363533128806 250.8993604005892 0.7862811134621138
2.0562981605179598 12.043562014769432 21.580818871663375 265.31562927054324 0.810400688386017
2.0607378988060256 11.978692520288652 20.131200908359947 280.75046293630436 0.8358946376786782
2.064034463631901 11.911776822816922 18.810768952057614 297.2941630103197 0.8628715925359463
2.066184534063743 11.84285238337133 17.609672919244048 315.0470759565944 0.8914517103928712
