M[M_sun], R[km], Lambda[1], P_c[MeV/fm^3], rho_c[fm^-3]
0.24162668629717493 15.618656898711224 2160425.4255784233 3.5677272577965504 0.1711233750220791
0.2536365008647616 15.277466020850209 1723355.7594679464 3.7846848752615414 0.1738864936994289
0.26602353612344143 14.981652713875233 1383357.8681819106 4.011118262216726 0.17666323854818528
0.27879110054123607 14.723977062192754 1116915.1929612504 4.247287698604589 0.179452404896756
0.2919359473223041 14.498965055398095 906333.3435574789 4.493816336866959 0.18226052202592152
0.3054637573969629 14.301740262860783 739082.1210571505 4.75085008558942 0.18508310634655267
0.3193703266598713 14.128714702254308 605494.0175209849 5.019086970429944 0.18792712281416762
0.33365849593631275 13.97656042647196 498105.3423830454 5.298729417879905 0.19078877189525928
0.3483276569870751 13.842641246745213 411379.2565772243 5.5905307567839815 0.19367485142431914
0.3633779495755777 13.724610146122213 340991.5844865817 5.894626952011171 0.19657984676089835
0.37882068520950535 13.62059772587049 283618.77368314535 6.211894729617108 0.19951170583989325
0.3946405905554188 13.529024411297334 236687.2383350738 6.542615180670882 0.20246702958786153
0.4108524924996372 13.448438822337657 198130.70082793542 6.887443057128145 0.20544872579567844
0.4274471755479208 13.37759474359449 166323.27116306068 7.247103749334958 0.20846024676101363
0.44442890106439936 13.315426777151945 140006.02054528074 7.621890026702452 0.21149768269900082
0.4617971980274132 13.261016996755757 118162.78571245655 8.012682931826777 0.2145661492302234
0.47954660745489325 13.213587487895674 99979.43945464547 8.420217225393547 0.2176677917260353
0.4976877430500159 13.17239410992607 84789.80387397466 8.84497942927759 0.2208007435986556
0.5162109680214158 13.136763218058277 72072.32053692499 9.287751009956972 0.22396712124593965
0.5351129319914634 13.106170088040132 61396.45167672331 9.749457671030793 0.22717046271710678
0.554403667690472 13.080126499142295 52407.11027267775 10.230906929065256 0.23041211562614813
0.5740658329085176 13.058098686676809 44820.71258603535 10.732634555060423 0.23368960787108237
0.5941119179994054 13.039776553546462 38407.753418162356 11.255755165560302 0.2370075027404643
0.6145268696235092 13.02469555470488 32970.80986519931 11.801265031986157 0.24036819773424195
0.635310711726272 13.012593012469155 28123.558706316817 12.370140487928943 0.24377332100875249
0.6564600940842777 13.003142752183996 24429.89144120596 12.963158599794838 0.24722182840414653
0.6779777941013839 12.996074173214113 21078.970937722814 13.581468458674289 0.2507165298829738
0.6998468306446792 12.991119603955198 18216.176367321063 14.226348486917049 0.2542610163269631
0.722060291325291 12.98805179857036 15768.559401831752 14.898984885581331 0.2578572656935042
0.7446280487272988 12.986672392810249 13668.726739259497 15.600522538767086 0.26150634628853126
0.767528536576644 12.986740268570886 11866.369268704344 16.331994479522653 0.2652078411670648
0.7907531037870279 12.988093775145293 10316.67397668232 17.095123013537563 0.26896755881724815
0.8143073010134468 12.990603741486737 8981.239961472054 17.891358591129904 0.2727879227667851
0.8381675649319731 12.994060241539133 7828.8462171596175 18.72221253019024 0.2766713423793143
0.8623286193797868 12.998306396441668 6833.946340589308 19.58873270947312 0.2806156686921645
0.8867800394961926 13.003236265164318 5972.641943687901 20.49314011196125 0.2846285334956278
0.9115226429469141 13.008716063131692 5226.7493086573095 21.437222745631324 0.2887129379822032
0.9365203332158567 13.014598240999968 4579.47116666563 22.4226503433275 0.2928703197717338
0.9617754148278564 13.020794637569859 4016.554301899019 23.45106970840246 0.2971014673932366
0.9872804404639899 13.02717884885699 3527.6048413842173 24.525075496971382 0.30141393552928025
1.0130020944379405 13.033635813081201 3085.17988748419 25.646828981422207 0.3058110093026502
1.0389439234888849 13.040080774617431 2730.26828321653 26.817843024521995 0.3102906567292185
1.065077245429984 13.04642021072466 2405.999794583032 28.041417944896477 0.314863200796388
1.0913850498671487 13.05254245120431 2122.8735814606234 29.319865241583607 0.31953088244424044
1.1178626366996354 13.058384506174141 1874.888117896116 30.65541305964932 0.3242948039670499
1.1444782920227796 13.063854568216623 1657.6366141472738 32.051805672581516 0.3291654325536386
1.1712165074584486 13.068877947279102 1467.1468576709372 33.5109666160576 0.33414036301010636
1.1980587069045463 13.073354493671122 1300.0572525092737 35.037134073149154 0.33923130226559645
1.2249807183300996 13.077233237032656 1153.1144162566707 36.6328527065158 0.3444382959137769
1.2519632627263406 13.08041962144397 1023.8261275233967 38.30249520394669 0.34977170933688273
1.2789825633925251 13.08287569705204 910.0039397339119 40.04896616710961 0.3552321382149682
1.3060093104149073 13.084476664099762 809.7234880307751 41.87740247166291 0.36083219657484394
1.333029962762054 13.085227694952387 721.247460749273 43.79084096647884 0.3665714319909457
1.3600234550727635 13.085056114471742 640.5049157845027 45.794772024526424 0.37246211066085044
1.386940689069598 13.083839548835565 573.9606417800975 47.894104395700715 0.3785118956248326
1.4137752214889032 13.081565247808141 512.783916832574 50.093089481773205 0.38472393359557455
1.4405025008426326 13.07818840470326 458.6326167952569 52.39786728509381 0.3911100414040102
1.4670724031619977 13.073607568207233 410.61068549947265 54.81436254806388 0.3976794381480369
1.493478164806029 13.067800437975936 367.9705205384266 57.34873514837554 0.40444113456087866
1.5196807212148788 13.060715890063525 330.12654819566234 60.00758038902558 0.4114048473356004
1.545656714607371 13.052277967882963 296.46636601352714 62.79796816988095 0.41858105718297034
1.5713675666695042 13.042460359701986 266.5561730452949 65.72748590551285 0.42598107161890403
1.596781606538524 13.031185071031402 239.86100526377362 68.80428556901137 0.4336170930350546
1.6218766179975694 13.018431572836729 216.11423820575467 72.03713528866764 0.4415022926738607
1.6466138975578075 13.004166240192061 194.88815205216875 75.43547597790057 0.4496508912044062
1.6709788875550782 12.988316202232522 175.95513091384234 79.00948353941149 0.45807824667887087
1.694910943767158 12.970841831422096 159.02534606967043 82.7691624502775 0.4667969484457222
1.71839935510253 12.951716072902245 143.8710142527739 86.72659258817366 0.47582602419088177
1.7414006656769434 12.930880790593223 130.32305454600152 90.89452320126112 0.48518472258752027
1.7638846240217008 12.908311914715428 118.17310233364314 95.2853693917519 0.49488846146411053
1.7858180704747977 12.883958408528686 107.268886184604 99.9143755036678 0.5049611603036516
1.8071564635779234 12.857772447886823 97.49329073076086 104.79715960730319 0.5154251489676155
1.8279051345478976 12.829791886873235 88.70359856817987 109.94933362641676 0.5262997294300749
1.8479817547925912 12.799877039216513 80.80321642041076 115.38994969084226 0.5376138643476032
1.867399436456017 12.768108632317345 73.69128601399028 121.13849966575684 0.5493944401460057
1.8860915139991694 12.734374060935231 67.29290012518247 127.21617156458292 0.5616706840870316
1.9040198260198316 12.698612121619846 61.52064590891364 133.64605910854587 0.5744745052304393
1.921196539702363 12.660943984057809 56.31212085746427 140.45238773194478 0.5878373496480573
1.937558430516149 12.621240606176174 51.61074131586299 147.66288774959938 0.6017980930322055
1.9530751836189004 12.579473156071469 47.362093619997935 155.30732762725785 0.6163972638454461
1.967727709457968 12.535689575581875 43.51953714030542 163.41696235236614 0.6316746860549883
1.9814900154504336 12.489843950195898 40.044872741661756 172.02723756421514 0.6476781029909214
1.9943287902953457 12.441935079923216 36.894468303546 181.17649351458329 0.6644579740578649
2.006189930702586 12.391862507187895 34.04547828361619 190.9062744691829 0.6820677692012821
2.017080940310494 12.339728063930652 31.45628664859517 201.26228909674523 0.7005662961368391
2.026968803670514 12.285500257204575 29.109644643711643 212.29487244537484 0.7200182107886747
2.035825208150963 12.229168774361492 26.976380044064392 224.05831665983942 0.7404907128428514
2.043631032299502 12.1707509913073 25.041205858916154 236.61372947610698 0.7620616580195739
2.050347558025197 12.110203165180202 23.28028913696817 250.02670665277196 0.7848105055075054
2.055968225287937 12.047576858528425 21.677802205056494 264.3711441315445 0.8088291446457807
2.0604824131830712 11.98289882955163 20.220864401961517 279.72767277512935 0.8342149409427054
2.063855910411807 11.916179962708357 18.892718210353898 296.1857926285426 0.8610755846409793
2.0660817387872914 11.847437108255328 17.684346494661195 313.8432558506587 0.8895246311764599
2.0671430820147596 11.77683398654045 16.58601529296118 332.82790545093616 0.9705341015701481
