M[M_sun], R[km], Lambda[1], P_c[MeV/fm^3], rho_c[fm^-3]
0.24162668629717493 15.618656898711224 2160425.4255784233 3.5677272577965504 0.1711233750220791
0.25364407123038296 15.277269302302109 1723144.2786985624 3.7848218807858616 0.1738882014071959
0.2660400632462761 14.981260390392254 1383032.8856034016 4.0114062683408385 0.17666671893222557
0.2788149281298101 14.723515191869888 1116440.7426307958 4.247736441992286 0.17945760964381144
0.2919699006060366 14.498397549107798 905863.2550947088 4.4944375856121335 0.18226743977488336
0.30550577954730673 14.301215441434566 738655.882018785 4.751664925522553 0.1850919081729759
0.31942157839866464 14.128141928417158 605106.6568835675 5.020101396197282 0.18793764787303613
0.3337200560121563 13.975935192216358 497679.1838765996 5.299970126537116 0.19080126377272943
0.34840113888995844 13.842026482924323 411006.21278368525 5.5920008381852755 0.19368907486628212
0.36346244955551205 13.724068860843925 340650.9464043124 5.896359421640428 0.196596118482286
0.3789170602106404 13.61999730467694 283291.5460966022 6.213910541239557 0.1995300876146948
0.3947496029598256 13.528462726492478 236419.92217187103 6.544912233510255 0.20248717163809643
0.41097513450837153 13.447863514888073 195366.68282303817 6.890065679800357 0.2054710611508959
0.4275831477079069 13.377043888148913 166081.43078328838 7.250076538184705 0.2084848398813071
0.44457779606502906 13.314930597669274 139805.26414773744 7.625204758027113 0.21152407009171037
0.4619592114377092 13.26056948126153 117980.95271277551 8.016397401408842 0.21459488365546037
0.47972455328418906 13.213158048502118 99812.36393479373 8.42436038119309 0.21769894246562227
0.49788176897923425 13.171980921049045 84644.0543686331 8.849535988912354 0.22083373503727943
0.5164194398927173 13.136410386328746 71938.70136382796 9.292794684947077 0.22400262903230647
0.5353386739077595 13.105838201074683 61275.03616386525 9.75502263844003 0.2272085634296993
0.5546434245770681 13.079828052334806 52299.31249574108 10.237029441794123 0.23045288917252243
0.5743278013410753 13.057849332488285 44730.169033879254 10.739288007854395 0.2337323250990014
0.5943845130655909 13.039518540939627 38329.476028512436 11.263039576576436 0.237053015872314
0.614821315960649 13.024500801953295 32901.908525451756 11.809223407789823 0.24041659793738507
0.6356252516248736 13.012435319815914 28060.465664258634 12.378818517038304 0.24382470426304456
0.6567950798734006 13.003017961222362 24370.653460651127 12.972516433064207 0.24727531394175412
0.6783274318930292 12.995973779613125 21028.212314571956 13.59163892221396 0.25077315629913244
0.7002157469413175 12.991063350831457 18172.294468203712 14.237386079072666 0.25432089580309714
0.7224502182017837 12.988000008765244 15729.689212002475 14.91094760490171 0.2579205170999322
0.7450370222041973 12.986642649893694 13633.96595604426 15.613355436584937 0.2615719395497786
0.7679581824889561 12.986760245781202 11836.436853937592 16.345871259421816 0.26527701343444554
0.79120237588762 12.988145362479456 10289.256578654253 17.110113275727333 0.26904045138614835
0.8147787049433067 12.990665236513554 8956.331952140736 17.907536548377507 0.27286468601714564
0.8386592699037309 12.99412628104122 7807.449099362053 18.739506444343704 0.27675079896673793
0.8628411328333726 12.998401743280201 6814.5527851373745 19.607367330735187 0.28069927048552673
0.88732016528597 13.003355224944995 5955.414227402931 20.513205069429386 0.284716461250374
0.9120762503756623 13.008852221698186 5211.079179076423 21.45881380351172 0.2888053846395576
0.937096978968492 13.014736183048193 4565.306492676329 22.44567759009833 0.29296596184509366
0.9623800011212997 13.020944121118795 4004.5643403158238 23.475821963273802 0.29720199365488065
0.9878997910824927 13.027330353564306 3516.5446355646527 24.55166918743129 0.3015195796368599
1.013643224846115 13.033791235248387 3091.9287798710793 25.675161205518286 0.30592034881191527
1.0396058361702036 13.040244593439045 2721.456079027673 26.84825995095468 0.31040556640011907
1.065757045241958 13.04656971315386 2398.279903757217 28.074061854898655 0.31498396481414603
1.0920897354068344 13.052704813543361 2115.7930372156734 29.35462048867554 0.31965597999394096
1.1185881098361288 13.058540982763635 1868.6327824246657 30.692694334541333 0.32442631607999783
1.1452174819802148 13.063997358337637 1652.109014923916 32.09168070204627 0.32930301370322185
1.171981180586754 13.069004778771548 1462.0579114451718 33.55352191669863 0.33428377876090176
1.1988366346312653 13.073463856024764 1295.4153212994568 35.08275969794934 0.3393821738376758
1.2257821699175058 13.077328826291108 1149.0698644746917 36.68141632066553 0.344594954615538
1.2527778247243557 13.080498196252895 1020.1689042112494 38.35454561542518 0.3499365678067391
1.2798197152675412 13.082935967010803 906.6954260257515 40.10438687891418 0.35540359138242794
1.3068630665013468 13.084525425178416 806.7278253876584 41.936412846693905 0.36101059387859524
1.3339006975543153 13.08523901929132 718.5824601233381 43.85410214317576 0.36675947692436034
1.3609155476178503 13.085027153707824 642.3630646860342 45.862151527875405 0.3726580411037756
1.3878400331309466 13.083777039902504 571.7976970419658 47.9658898216006 0.37871622011978334
1.414696767888096 13.081483579209202 510.82778350417396 50.170067395788635 0.38493963419378724
1.441419326651101 13.078032846241355 456.8796653550184 52.479915565013776 0.39133531523983645
1.46801445481824 13.073433601348478 409.01709043839924 54.901844228127786 0.39791492309753185
1.4944231170068851 13.067569273221178 366.5232236376044 57.44204265597387 0.4046875177888548
1.520634805773706 13.060424200536099 328.84008039803234 60.107138175042394 0.41166286934095
1.546618550711722 13.051937886238735 295.2857014662245 62.90423560136488 0.4188515162447324
1.5723344489148234 13.042058426795052 265.4614140030513 65.84096044987552 0.4262648286860485
1.597758821547581 13.030732155365584 238.92139495299466 68.92550630250257 0.43391507710800636
1.622845406326992 13.017911882600883 215.24092386575313 72.16668676590375 0.4418155067315162
1.647597759049028 13.00357293675488 194.09549402630702 75.57399250377547 0.4499804187368543
1.671947194331621 12.987637271688856 175.23671000042538 79.15735784535687 0.4584240226247202
1.6958832545273916 12.970093040101547 158.36090192182988 82.92697875252385 0.4671596098486487
1.719364168113918 12.950882014175129 143.28022257528286 86.89558914741652 0.4762087182496777
1.7423471047120258 12.929942712002173 129.78388077555485 91.07477038765123 0.4855857062306339
1.764829983672125 12.907296597719013 117.67963953772684 95.47860202011978 0.49531245699749893
1.7867559523203873 12.88285944425267 106.8200865045752 100.12076177885417 0.5054065329316887
1.808094328086987 12.85660776518768 97.0826884629164 105.01776884600825 0.5158936131484207
1.8288053843109737 12.828473824751256 88.33228388703169 110.18616301536909 0.5267962331693208
1.8488853032642825 12.798509705915324 80.46395080369444 115.6435737797141 0.5381377641962678
1.8682626344313 12.76657256630814 73.38683183041138 121.4102104776935 0.5499475437882044
1.8869423531398308 12.73275427848874 67.00996448194434 127.50749319565871 0.5622553642761046
1.9048644792182434 12.696942624976645 61.255941930386925 133.95785919356186 0.5750905150659432
1.9220075158783592 12.659126007791984 56.075135345971724 140.78698387979048 0.588489270184545
1.93832086140494 12.61924222924953 51.391590229674065 148.02255134550668 0.602489923853313
1.9538186130533168 12.57739898298538 47.161670012883754 155.69307400748608 0.6171282918497356
1.9684364245638335 12.53347265736906 43.343127118342046 163.8321793282472 0.6324519126984127
1.9821519174327733 12.487476259167167 39.87994203376409 172.47362963482692 0.6485023171418068
1.994942107195849 12.439403457526657 36.745299676809424 181.65672995639127 0.6653327313954734
2.006778868293429 12.389245701433598 33.90376039560676 191.42347071330119 0.6829975390921695
2.017627449443351 12.336974395145123 31.32805986506571 201.81988162597773 0.7015559678742592
2.0274644499239516 12.2825925337379 28.99168989476279 212.89591387027625 0.7210707086783583
2.0362761952632313 12.226130085283504 26.870440169015687 224.70703371141042 0.7416120357102545
2.0440217012420447 12.167539030842729 24.942462967389655 237.31441299491166 0.7632571206837045
2.0506826730639713 12.106835881266067 23.188035847305006 250.78490385293242 0.7860885266878176
2.056256078724237 12.044094184558114 21.59370074603662 265.19161462248826 0.8101944552110419
2.060704677296643 11.97924778486153 20.141596696166747 280.6162497991871 0.8356744968959718
2.064011808592544 11.91235534338873 18.821030362559384 297.14855048945225 0.8626356741611271
2.0661742040184374 11.843458031928312 17.618769214031513 314.8888945356415 0.8911984930498166
2.067168422275968 11.7725712368801 16.523253725555907 333.9466684856285 0.9214887705396223
