M[M_sun], R[km], Lambda[1], P_c[MeV/fm^3], rho_c[fm^-3]
0.24162668629717493 15.618656898711224 2160425.4255784233 3.5677272577965504 0.1711233750220791
0.2536409902712696 15.277367200559269 1723207.6558538824 3.78478165524373 0.1738877000152187
0.26603530991065255 14.981366581738563 1383083.2892045027 4.011321706694886 0.17666569705463914
0.2788082004030477 14.723654578765446 1116594.2716811565 4.247604683876065 0.1794560814482185
0.29196035877387255 14.498546568491456 906036.1011260861 4.494255174095046 0.1822654085803051
0.3054925401220409 14.301396023447692 738771.3980000827 4.751425667474646 0.18508932372942766
0.31940661627896944 14.12831307011093 605222.5210010611 5.0198035297175885 0.18793455739334342
0.33370143139202296 13.976128281574777 497801.62726655055 5.299605810320001 0.19079759571293303
0.3483780114881573 13.842234802911697 411109.2420382724 5.591569163173811 0.1936848982917965
0.36343876033613703 13.724158164175133 335827.0193889784 5.8958506905040995 0.1965913403717946
0.378889900755698 13.62014982448441 283399.8180942603 6.213318598438209 0.19952468980909202
0.3947173769800027 13.528624909008293 236494.13919560183 6.544237694179746 0.2024812568394259
0.41093887386456407 13.448055709389324 197943.9201972824 6.889295523144654 0.20546450217363224
0.4275417851492984 13.377229392690797 166141.662478821 7.249203538166033 0.20847761777588336
0.4445349849367915 13.315081168834226 139867.14233155554 7.624231328030584 0.21151632096302456
0.46191129058515285 13.260705474070784 118037.34902826555 8.015306564026481 0.21458644514640365
0.4796717273722735 13.213285816863975 99858.76322311076 8.423143631476918 0.21768979420874157
0.49782403086153865 13.172138611881609 84686.40879320321 8.848197813619521 0.220824046076401
0.5163577519286118 13.136512431640668 71976.89608148963 9.291313430272158 0.22399220090704958
0.5352719762562432 13.10594363446476 61310.97040675268 9.75338826258723 0.2271973736274855
0.5545734114018693 13.07989450334569 52330.67366786393 10.23523129285254 0.23044091420203167
0.5742510242318607 13.05793187297216 44756.37610336722 10.73733389898182 0.2337197791147323
0.5943026140161458 13.039592389896459 38348.39492019306 11.260900123764033 0.23703964853242593
0.6147344890792062 13.024559372447827 32922.03638169613 11.806885974107617 0.24040238244067527
0.6355318543617658 13.012481886757849 28312.62805968328 12.3762696772527 0.2438096123935425
0.6566956003796454 13.003072530748945 24386.706843360687 12.969767891723158 0.2472596044065411
0.6782246940948835 12.996005964421608 21042.232110758297 13.588651653654786 0.25075652398813214
0.7001062840401325 12.991086953527837 18185.29610698015 14.234144068557496 0.25430330773782595
0.7223360293558354 12.988011882389351 15740.497582539978 14.907433808820352 0.2579019383355146
0.7449170854631426 12.986650116647713 13643.719316095603 15.609585996810644 0.2615526726740206
0.7678318901928627 12.986758601664075 11844.781736322237 16.341795135882283 0.265256694980928
0.7910708348212294 12.988123178240075 10296.917110646911 17.105710014483996 0.26901903981779135
0.8146376388879409 12.990659027289528 8963.422076051489 17.902784339557392 0.2728421371260934
0.8385137480680468 12.99410653692808 7813.059180723766 18.734426364563475 0.27672745862865167
0.8626905545192212 12.998375567605807 6820.205582041537 19.60189333509692 0.28067471211936623
0.88715916650864 13.003322451665333 5960.474363328571 20.50731081609116 0.2846906317183274
0.9119132707593768 13.00880573783907 5215.496610486717 21.45247114698899 0.2887782272210781
0.9369276974894434 13.014692409627928 4569.221206624544 22.438912949384523 0.29293786537877087
0.9621988558239429 13.020900526213154 4008.0251986237968 23.468550458822293 0.29717246191472857
0.9877174057523724 13.027286209997959 3519.766192538583 24.543856598869045 0.30148854393131197
1.013454521732859 13.033749680428869 3094.7076770017707 25.666837771372478 0.3058882270765437
1.0394119570550457 13.040193885231986 2724.0380133821654 26.8393239307503 0.31037180772489203
1.0655599922479795 13.046530072170476 2400.4452051404296 28.0644714269441 0.31494848565090444
1.0918819332302336 13.052653256642403 2117.7563485443525 29.344409639358208 0.319619227205892
1.1183745171054758 13.058493145284702 1870.423125337877 30.681741176106605 0.32438767810387237
1.1449999222634677 13.063952645681294 1653.6552771810796 32.0800209790035 0.32926295204328343
1.1717574777535225 13.068967911751898 1463.61769527616 33.54101888469462 0.3342416422539317
1.1986065411119915 13.073427109146902 1296.7777547106573 35.0693543568186 0.33933784600875266
1.2255476840243646 13.077302600060579 1150.2238679290376 36.66714756645237 0.34454892582320207
1.2525375164438366 13.080472821343783 1021.2515115200916 38.339258877642116 0.3498881685957512
1.27957367999902 13.082912141567775 907.6607412092528 40.08810288645761 0.35535321414989773
1.3066125214021584 13.084515175801286 807.6132775190399 41.91907387018866 0.36095817552577647
1.3336447696455596 13.085231493927507 719.3753181280883 43.83551382057346 0.36670422281641374
1.3606489909234039 13.085037997372313 641.3417993043051 45.842352801773416 0.37260046909772465
1.3875759265791017 13.083795377296303 572.434171681565 47.944796141743375 0.37865618069772167
1.4144276998617937 13.081514004211186 511.3945585687741 50.147447509364476 0.38487625077926374
1.4411551181351805 13.07809189279764 457.39055009128526 52.455805374327376 0.3912691176895194
1.4677395752699636 13.073488972908224 409.4844624662016 54.87613699698887 0.3978457238546506
1.4941460477373643 13.067635168223132 366.9490092114619 57.41462300345625 0.40461511479930806
1.5203548904839939 13.06050958344993 329.21604903292916 60.0778813016001 0.41158704486294717
1.5463358711132686 13.052038987333056 295.63483360071706 62.87300643773945 0.41877203554047704
1.5720509819510637 13.042174780245276 265.77399039388933 65.80761272019717 0.426181438582809
1.597473126312912 13.030868362961685 239.20640977581266 68.88988149194351 0.43382750441443496
1.6225601241798693 13.018067104204269 215.50431330788822 72.12861298205348 0.4417234564933834
1.6473119668883809 13.00374932499336 194.33677208006713 75.53328321956974 0.44988357231447035
1.6716610158311265 12.987841099535697 175.45016762084043 79.11402302553724 0.4583229229858636
1.6956000609077149 12.970315808467857 158.55578587635796 82.88059569679656 0.46705302172167673
1.7190635805234762 12.951091042865402 143.45672840266167 86.84591914458663 0.47609624013137436
1.7420696076835553 12.930217435855052 129.94305154388707 91.02179276082985 0.4854678505113198
1.7645552715877721 12.907602889029844 117.81912718529 95.4218065429661 0.49518783503881
1.7864820093718408 12.883185408334421 106.95076308257671 100.0600990018265 0.505275625290643
1.8078232232515574 12.856957878365089 97.20378380084637 104.95292427435558 0.5157559155645968
1.8285479567131782 12.828876233903392 88.44080604971002 110.11662090245588 0.5266505573515116
1.8486234323743713 12.798919041214988 80.5650124899883 115.56902175069149 0.5379837654302344
1.868015005188669 12.767046341686276 73.47175388255056 121.33034020122527 0.5497849571745062
1.8866925113595234 12.733232760272479 67.08951159096522 127.42185636137484 0.5620834918330052
1.9046223157728162 12.697448887793973 61.33200475293494 133.86627994025588 0.5749097091848115
1.9217570542872586 12.65962420571571 56.14221209195246 140.68862178790158 0.5882976234243323
1.9381020228451715 12.619849144232582 51.45516901537813 147.9168175338285 0.6022865396059648
1.9535984045886214 12.578010101635709 47.22337739853021 155.5796698360007 0.6169133795928533
1.9682300227048097 12.534126892004931 43.391529067526925 163.71021998177687 0.6322237916197816
1.981958884850804 12.488175006372828 39.92748935731339 172.3423898634353 0.6482599972533919
1.994757223892215 12.440133481341606 36.789685420823446 181.51553634478938 0.6650755452741803
2.0066029034917134 12.390005013209322 33.94662001416572 191.2714066269749 0.6827241716604464
2.0174689712392246 12.337789527031143 31.365374207305766 201.65593592656873 0.701264980429718
2.0273207134838964 12.283451732143376 29.02567442876825 212.71938322815868 0.7207618788814665
2.0361469612474177 12.227029057625229 26.902176552968783 224.516284695517 0.7412823214951927
2.043907471817003 12.168483132089783 24.970995383069788 237.10851656141662 0.7629060483506269
2.050584012057386 12.107824747246323 23.214623456624984 250.56200748482246 0.7857129017115305
2.0561691120827787 12.045102897397875 21.618171787737705 264.9503414604556 0.8097929626517444
2.0606411900293287 11.980324370258627 20.164758857078265 280.3551647127631 0.8352460082619116
2.0639727589664143 11.913493533519004 18.84288993367445 296.8654618490502 0.8621770198395375
2.0661466562385553 11.844626773360414 17.63783742053751 314.58137705596937 0.8907062180488946
2.067161611511637 11.77378835577129 16.541852715516534 333.6126945393998 0.9209612853692046
