M[M_sun], R[km], Lambda[1], P_c[MeV/fm^3], rho_c[fm^-3]
0.24162668629717493 15.618656898711224 2160425.4255784233 3.5677272577965504 0.1711233750220791
0.2536434820008253 15.277276642085448 1723270.6865505949 3.7848112036006767 0.17388806832123344
0.26603850040612564 14.981323008848651 1382975.5065676407 4.011383822767553 0.1766664476907189
0.2788132543448537 14.723547684334727 1116467.231069816 4.247701468663155 0.17945720400589718
0.291966776426037 14.49847960734062 905885.7776894245 4.494389166801446 0.18226690062018894
0.30550297314305386 14.30124152674946 738665.3911503312 4.751601417189554 0.18509122216177204
0.3194184898026404 14.128168913667377 605132.9504458946 5.020022330526095 0.18793682753618102
0.3337149814155476 13.976007551410936 497721.23301783775 5.29987342195083 0.19080029011800748
0.3483953930848059 13.84207399570909 411034.2713083373 5.591886253239472 0.19368796622541024
0.3634574139375056 13.724038973696969 340669.05004864064 5.896224382034918 0.19659485016173361
0.37890999999640146 13.620043392099861 283326.35525620356 6.213753412815042 0.19952865479265813
0.39474165026339214 13.528484432745849 236422.08032869914 6.544733179409231 0.2024856015755207
0.4109652046032018 13.447907343343667 197877.67183506474 6.889861243413655 0.20546932008483834
0.42757181128154953 13.377108973014142 166100.7914322627 7.2498448011251515 0.20848292278000252
0.44456594687233214 13.314966481895466 139818.5492529055 7.62494636079443 0.21152201308358934
0.4619471693047326 13.260621916297959 117995.9167665616 8.016107836969342 0.21459264364041802
0.47971025084806035 13.213189285135238 99833.40979333347 8.42403739159304 0.21769651403536108
0.49786653672229847 13.172009255915336 83777.53090717815 8.849180765066253 0.22083116306485817
0.5164030167139894 13.136427523308328 71946.33280856955 9.292401478271158 0.22399986083279444
0.5353201480527581 13.10587092134627 61284.82839487634 9.754588782924296 0.22720559302518548
0.5546270761424517 13.079836978675774 52308.95937960142 10.236552109432125 0.23044971032519948
0.5743069441582058 13.057860099798384 44736.40596541088 10.738769272654803 0.23372899465833596
0.5943637013858339 13.039535508886305 38332.79680141091 11.262471637582623 0.23704946737920307
0.6147981127799023 13.024539861742467 32906.12328936325 11.808602909934882 0.2404128242751492
0.6355991618839737 13.012436368937559 28298.860859917513 12.378141895943147 0.24382069793933284
0.6567680716637297 13.003034306538753 24374.204895347582 12.971786795876936 0.24727114363479347
0.6782984489990501 12.996013219352351 21031.655982535845 13.590845908029845 0.2507687410086165
0.7001872278381052 12.991067490888629 18039.740318372886 14.23652543593816 0.25431622677208876
0.722419412551487 12.988008635583926 15732.972613160917 14.910014807669745 0.25791558504934625
0.7450053513788095 12.98665461199972 13636.672461897811 15.612354770542556 0.26156682480873794
0.7679247570245944 12.98675831277698 11838.065894375872 16.344789173624395 0.2652716195081419
0.791168135927863 12.988130086211587 10291.248777602748 17.108944339488062 0.2690347672450518
0.8147410217961949 12.99066092671632 8958.392713024125 17.906274970964972 0.27285869992253026
0.8386214013094585 12.994123396708376 7809.042868566705 18.73815782131531 0.27674460274171875
0.8627998368890082 12.998389644880845 6815.83610642082 19.605914126970006 0.28069275087672
0.8872743015391109 13.003333004621869 5956.615581107174 20.511640290803296 0.2847096041478117
0.9120330626046675 13.008839455101326 5181.665262804708 21.457129976964364 0.2887981749818961
0.9370513002368682 13.014729946818058 4566.376516068804 22.4438817297638 0.29295850286367187
0.9623289432312193 13.020929400641865 4005.632649112612 23.4738915327755 0.29719415360304025
0.9878525485193941 13.02731742179491 3517.4661384535802 24.549595100580895 0.3015113402744185
1.0135930429449682 13.03377891277568 3092.681392998937 25.672951490724053 0.3059118210969573
1.0395545586287398 13.040230104584705 2722.159024421189 26.845887594542656 0.3103966040647836
1.065703702798899 13.046555668799357 2398.9587879112255 28.071515752185807 0.3149745456730809
1.0920338460539287 13.052690715346756 2116.204659240136 29.35190966336269 0.31964622268726994
1.1185310782848525 13.058528083485166 1869.0536779154068 30.68978642286067 0.3244160582331163
1.145159853934271 13.06398107355651 1652.5181799366644 32.08858519465277 0.329292377844713
1.1719201504753352 13.069001072089824 1455.695396343669 33.550202504570784 0.3342725919997852
1.1987762485372817 13.073458697535392 1295.792376037026 35.07920071461974 0.33937040524464734
1.2257195782158403 13.07732743527578 1149.3776189936766 36.677628093820836 0.344582734382142
1.2527139625259407 13.080488426259494 1020.4606145247047 38.35049413067339 0.34992375941434195
1.2797537713482618 13.082930669126497 906.9351689041821 40.10006358253591 0.3553902165477536
1.3067984887630726 13.084520895436324 806.9674635736837 41.931809438394154 0.3609966770778918
1.3338333025280373 13.085235179475925 718.7471630234785 43.84916701271055 0.3667448071643562
1.3608405749899701 13.085035422049625 640.8213204258692 45.85689501572512 0.3726427558804858
1.3877693198984231 13.083778162944657 571.9893813194708 47.96028947636636 0.37870027972941595
1.4146251777623566 13.081492331317673 510.962924943027 50.16406180995033 0.3849228058804391
1.4413481851119236 13.07804140541013 457.0197466229087 52.473514272004635 0.3913177396875906
1.4679410835598603 13.073448455336994 409.1405774443781 54.89501888467989 0.3978965505004814
1.494349636748501 13.067586692489058 366.644532939326 57.43476262302402 0.4046682944909217
1.5205618278309192 13.060446749632765 328.9417648197972 60.09937031218767 0.4116427375197108
1.5465433755129618 13.051966771739263 295.38092513310437 62.89594404080945 0.4188304135639105
1.5722602089040125 13.042090521120748 265.5550069694222 65.83210634758373 0.42624268791330844
1.5976828199288995 13.030768770416252 238.99664555262848 68.91604756399907 0.43389182569429946
1.6227700219451984 13.017953581835119 215.30468663453064 72.15657774384037 0.4417910663477634
1.6475220399806652 13.003620002270027 194.16485350170697 75.56318366403498 0.449954704763263
1.6718710589882357 12.987691865800047 175.28898988999742 79.14585183537848 0.45839717923507795
1.695808218670516 12.970151102661223 158.4110112059535 82.91466331797794 0.46713130901593053
1.7192732427891713 12.95091194435325 143.32812796734774 86.88240089452823 0.47617885334562965
1.7422758684885733 12.930016150917368 129.81982813713415 91.06070382680355 0.48555441331046273
1.7647562872325817 12.907375029912771 117.71707376829302 95.46352164934859 0.49527936729674377
1.7866830624937724 12.882948039136302 106.85506808491994 100.10465446744541 0.5053717740524645
1.8080226542346407 12.856699407674755 97.11695385051682 105.00055107303349 0.515857051171419
1.8287350671914158 12.828574979069343 88.35645409969176 110.16774367991599 0.5267577232385745
1.848815734545742 12.798618122915226 80.48989891675268 115.62377818119977 0.538096873320673
1.8682038364483222 12.766719161540458 73.40521890909652 121.3890026005467 0.5499043723221535
1.8868759817205023 12.732881096221982 67.03161231944988 127.48475397632443 0.5622097268443401
1.904801249562859 12.697075823103438 61.27710002954615 133.93354193006496 0.5750425052373571
1.921945304497153 12.65927270215198 56.09225497208884 140.76086536403827 0.5884383813834901
1.9382610233031587 12.619394089026096 51.40888155962115 147.9944751756394 0.6024359179436967
1.953761517987564 12.577564961468187 47.177447537831625 155.6629608714011 0.6170712244424872
1.968380774821438 12.533648421624914 43.35222471573471 163.79984675097623 0.6323915151753681
1.9821004252693442 12.487661787274162 39.89250254812226 172.43877993098465 0.6484379709740499
1.9948939695371257 12.439597809869182 36.757808643981434 181.61923679876094 0.6652644370889778
2.0067263704912115 12.389433095818191 33.915133293038 191.38309064033052 0.6829249473507041
2.017585459792307 12.337191403053843 31.33815410407827 201.77634607207102 0.7014786965605031
2.0274254798406193 12.282820086487577 29.000148112274452 212.84903603226698 0.7209886987053731
2.0362405970064716 12.226368091719655 26.87745566807267 224.65637972145967 0.7415244790827241
2.043991641142657 12.167788495010944 24.950619588683463 237.25973609215194 0.7631638915417933
2.0506563638133812 12.107098885879337 23.19527451377765 250.72577177837422 0.7859889712933578
2.0562289630453296 12.044345510018706 21.6000940427379 265.12754202824647 0.8100878346916843
2.060687423077045 11.979533918040694 20.148507327702493 280.5469558977912 0.8355608387696684
2.064000180334663 11.912651663863214 18.82735648202774 297.07337192040245 0.8625138714086866
2.0661666601967914 11.843768057627816 17.623550729349425 314.8072276539585 0.8910677604348813
2.067166680162498 11.772890864488499 16.528446495494833 333.85797468967854 0.9213486857737297
