M[M_sun], R[km], Lambda[1], P_c[MeV/fm^3], rho_c[fm^-3]
0.24162668629717493 15.618656898711224 2160425.4255784233 3.5677272577965504 0.1711233750220791
0.253642146034915 15.277359374350501 1723226.1637071192 3.784805241345373 0.17388799400459734
0.2660381751422137 14.981267559037743 1383056.5870822964 4.01137128895658 0.17666629622701024
0.27881174154064725 14.723597610609293 1116450.7621597035 4.247681939298934 0.17945697749470235
0.29196505348633506 14.498486612821218 905989.4323804087 4.4943621294608 0.1822665995531258
0.3054994758126408 14.301304059651995 738718.0737302528 4.751565953878983 0.18509083909033514
0.31941517703808764 14.128210932184636 605130.269544003 5.019978180059099 0.18793636945804543
0.3337115281203585 13.976019456391569 497744.66280771326 5.299819422026609 0.19079974642837264
0.3483925332030515 13.842087049609702 411048.464379869 5.591822269080247 0.19368734716106828
0.3634532702980297 13.724061470218542 340694.3618820858 5.896148976220875 0.19659414193437055
0.37890564948027755 13.62006623754806 283341.5104803599 6.21366567290081 0.19952785471028608
0.3947362457219471 13.528535352514426 236438.32248387721 6.54463319653771 0.2024847248608077
0.41096018153505104 13.447938453346895 197901.48377757592 6.889747087521886 0.20546834788536036
0.42756491143706804 13.377152032958131 166112.88021699846 7.249715401077796 0.20848185228657315
0.4445602414008763 13.314975789119554 139828.96515406918 7.624802074282473 0.21152086447017823
0.4619402724192861 13.260617220399457 118011.4417813194 8.015946147427245 0.21459139284108952
0.4797032789650605 13.213199393842757 99831.38992897105 8.423857038299769 0.21769515803072495
0.49785777855944524 13.172031593742615 84661.40025905284 8.848982413047247 0.22082972691149128
0.51639461153714 13.136439104208474 71953.1512560833 9.292181917753933 0.22399831511306517
0.5353112593147208 13.105876798350996 61291.21902372596 9.754346525364546 0.22720393440169703
0.5546156017185483 13.079839699837928 52311.4948194623 10.236285575841261 0.23044793531545943
0.574295766515277 13.057884636725937 44741.00724248963 10.738479621137891 0.23372713500587458
0.5943507987155704 13.0395581120609 38335.42528280486 11.262154512464258 0.23704748597572473
0.6147848986402538 13.024527147686017 32909.733482575146 11.808256437963978 0.2404107171474904
0.6355844070586087 13.01245691877257 28300.778491821715 12.3777640870086 0.24381846090459683
0.6567554629590119 13.003037980223203 24377.26585221902 12.971379384925813 0.2472688150408636
0.6782853183175875 12.99600302924316 21033.634644350466 13.590403110115327 0.25076627562846115
0.7001710877342008 12.991062379893785 18041.10938499195 14.236044877073924 0.25431361971679656
0.722403003290449 12.98800606246917 15734.666304151071 14.909493961345728 0.25791283113849667
0.744987821264892 12.986655318889207 13638.434361299085 15.61179602948864 0.2615639688950979
0.7679054535230653 12.986748258554359 11839.365182852369 16.344184971861683 0.26526860771389377
0.7911481999254595 12.988126177965192 10293.37345459727 17.108291644946007 0.2690315934125147
0.8147211445616678 12.990656580398127 8959.428647198712 17.90557055056256 0.27285535749808926
0.8386000670339806 12.994124486075357 7809.573951807307 18.73740479931731 0.276741142995262
0.8627789842099274 12.998392637354328 6817.038288339465 19.60510271303108 0.28068911057410806
0.8872499431530019 13.003334863690368 5957.712687996638 20.510766579999387 0.28470577541159797
0.9120103202940401 13.008828852733735 5213.082698095162 21.45618979698785 0.28879414940350057
0.9370263006549606 13.014715775563497 4566.862061552985 22.442878996860053 0.29295433808205923
0.9623022419215864 13.020920354662229 4006.1399027763296 23.472813664447788 0.29718977605949554
0.9878246077036217 13.027316618459476 3517.9175394978347 24.54843702393869 0.3015067397856838
1.0135651506063303 13.033768806010624 3093.373797588985 25.67171768825477 0.3059070596156114
1.0395261634459045 13.040225412068375 2722.4623638896273 26.84456298416052 0.31039159992528187
1.065674801613563 13.046553566224398 2399.260134185603 28.070094134119977 0.31496928648968847
1.0920034550201025 13.052686442244497 2116.5533156640086 29.35039607572941 0.31964077470113766
1.1184996562955938 13.058515331692588 1869.3578718222282 30.688162796760633 0.3244103307868401
1.1451275313809228 13.063975681721653 1652.7508545139426 32.08685682886313 0.32928643935009694
1.1718891521119736 13.068990793537939 1462.756213055818 33.548349127693314 0.334266345928617
1.1987415968322515 13.073445926659653 1295.9783763103942 35.077213580179 0.3393638343297652
1.2256850222049078 13.07731996609223 1149.5755317845867 36.67551296784101 0.3445759113131455
1.2526788637926594 13.080480875202142 1020.6243569615604 38.34822668024596 0.34991657662846243
1.2797167573754378 13.082933990412142 907.0804469402423 40.097649717923694 0.35538274885706345
1.3067602650082142 13.084522371026143 807.1202431004734 41.92923918280132 0.36098890680584267
1.3337944414314193 13.0852276705193 718.8344211724569 43.84641155275737 0.3667366165123564
1.3608023204346307 13.085032049483571 640.894201940963 45.85396012444253 0.37263422161531085
1.3877313781663079 13.083781024117455 572.083450372512 47.95716261947359 0.37869137968532773
1.4145854148354582 13.081499905580928 511.0564946851249 50.16070870481472 0.3849134101103293
1.4413077679162234 13.078050032322066 457.0735656980083 52.469940241010235 0.39130792673755366
1.467900054545445 13.073458867118475 409.2085992571793 54.8912081044034 0.397886292565331
1.4943085073803513 13.067597163584287 366.7123757503904 57.430697988421805 0.40465756161615507
1.5205183507230515 13.06046088156256 328.98563178753835 60.09503332185863 0.4116314974250216
1.5465014737579628 13.051980446344338 295.4299786415814 62.89131467081021 0.41881863144921117
1.5722170976213665 13.042107588975496 265.5873978991805 65.82716291252115 0.4262303262453867
1.5976405282150778 13.0307878114852 239.03654961406482 68.91076656397038 0.4338788439720108
1.6227208263613255 13.017948718759461 215.34230350296383 72.15093369561681 0.441777420843417
1.647479326343611 13.003646032854682 194.19804945895572 75.55714891468102 0.4499403482375633
1.6718279892720653 12.987723641736858 175.31672052309446 79.13942786247664 0.458382192179793
1.6957664786208866 12.970182951228445 158.44342849988084 82.9077874550314 0.46711550830290516
1.7192311849563442 12.950950049452201 143.35557116090206 86.87503775182043 0.4761621794501316
1.7422344363849482 12.930057689469828 129.84351096216366 91.05285033927915 0.4855369421914858
1.7647148771223276 12.907417680146775 117.73775264242984 95.45510217360474 0.4952608930869842
1.7866426436692104 12.88299514022452 106.87365364172648 100.09566167277825 0.505352367991714
1.8079820764221481 12.856751974213779 97.13427463473649 104.99093833418729 0.51583663850033
1.828695196267072 12.828630876494161 88.37578774438462 110.15744820594048 0.5267361786752518
1.848776595554253 12.798679193600801 80.504389577903 115.61272631733893 0.5380740439836416
1.8681658657827191 12.766787653937406 73.41874538845154 121.37716230651077 0.5498802698224801
1.886839052687989 12.732951322905267 67.04195905513362 127.47205878687953 0.5621842477004209
1.9047647365348863 12.697151611419146 61.287649037908714 133.91996577343824 0.5750157016888168
1.9219105687157865 12.659353409999657 56.103498745683716 140.74628364027112 0.5884099706404424
1.9382277910895493 12.619480883396188 51.41807291357183 147.97880057761913 0.6024057670745449
1.9537398195658324 12.57769068077133 47.18708210642488 155.64614912398227 0.6170393644982489
1.9683503843112642 12.533744780376116 43.36102632800555 163.7817959929169 0.632357796209301
1.9820737585141142 12.487766252405057 39.898525167535375 172.41932399161234 0.6484020477092672
1.9948675099167925 12.439706955936705 36.764418799737165 181.598305159255 0.6652263098173841
2.0067020281525485 12.38955310960301 33.92097950535421 191.36054739837627 0.6828844210942774
2.017561777109823 12.337312179852972 31.344090468463833 201.75204131315326 0.7014355580108909
2.027404645517439 12.282946813947543 29.00576883740111 212.8228654800679 0.7209429148900351
2.0362219826876875 12.226500967363544 26.882805121479123 224.62810119430807 0.7414755989753263
2.043974038382925 12.167928718183742 24.95373009066396 237.22921184708352 0.7631118448999468
2.050642674601183 12.107244552053366 23.19919177218965 250.6927150711583 0.7859332451570934
2.0562167493326937 12.04449861239686 21.60379992798798 265.0917728708985 0.8100283127357131
2.060679334784365 11.979692033509147 20.15135597203663 280.5082720918546 0.8354973883243554
2.0639983285709755 11.912832729842222 18.830598036414496 297.03140319607735 0.8624458745552771
2.0661630546970513 11.843940400540708 17.626881280636304 314.7616370735567 0.8909947788826351
2.0671657373683194 11.773073410300135 16.530370189276418 333.8084616188654 0.9212704838334567
