M[M_sun], R[km], Lambda[1], P_c[MeV/fm^3], rho_c[fm^-3]
0.24162668629717493 15.618656898711224 2160425.4255784233 3.5677272577965504 0.1711233750220791
0.2536404216690625 15.277382714294413 1723272.278957595 3.784770280017793 0.17388755822851498
0.26603402004726834 14.981379280199521 1383217.120277551 4.011297794064397 0.17666540808461192
0.2788061038919555 14.723694838528285 1116625.2734269944 4.247567425214922 0.17945564930389685
0.2919575232597409 14.49860957697196 906074.3636219801 4.494203592096016 0.18226483420277434
0.3054889813357388 14.301435106165581 738773.9672306587 4.751358011141038 0.18508859291190063
0.3194036291693721 14.128314773734564 605169.5131505429 5.019719301085874 0.1879336834887801
0.333697076650698 13.976210462363014 497855.92386275163 5.299502792416369 0.19079655849358107
0.34837246467673194 13.842270067459419 411153.09537541517 5.591447099209997 0.19368371728936795
0.36343146867509 13.72423077592429 340790.9543755658 5.895706838784095 0.19658998928599805
0.37887970043923164 13.620253204952196 283428.5836983733 6.2131512187739855 0.19952316350809254
0.39470778082174784 13.528686484105439 236510.9073746866 6.544046960774048 0.20247958436512611
0.4109287635321396 13.448101470126993 197964.7872831868 6.889077754753567 0.20546264756663077
0.42753190779760913 13.377251198743087 166171.38324512157 7.248956692033076 0.20847557568108666
0.44452199849854895 13.315115256530984 139877.21821179043 7.623956086799182 0.21151412986584306
0.46189806109348697 13.260739460888756 118050.68334821268 8.01499812796702 0.21458405914412387
0.47965664793964796 13.213334688709633 99874.85800467854 8.422799596363847 0.21768720754564355
0.4978080836537943 13.172172337339745 84698.80796677551 8.847819448280454 0.22082130654968307
0.5163421129498473 13.136525621470192 71989.85503597863 9.290894613077956 0.2239892524078922
0.5352534342990073 13.105962801774163 61318.376127834556 9.752926154947714 0.22719420979397753
0.5545541392196239 13.079933510029974 52342.09039499234 10.234722883741783 0.23043752839568507
0.574230487875412 13.057934541715403 44763.35505164109 10.736781397594058 0.23371623188467935
0.5942796234579935 13.039605444480713 38360.09677461192 11.260295223446585 0.23703586910429605
0.6147102673303926 13.02459270032651 32929.15449707155 11.806225102816644 0.24039836324058675
0.6355061153264628 13.0125071244096 28318.525870241116 12.375549040154008 0.24380534544780774
0.6566705102616394 13.003078158216473 24392.12108503247 12.968990798002666 0.24725516285749705
0.6781956221907219 12.996029771707441 21047.00329792462 13.587807071501327 0.25075182158097875
0.7000761897737104 12.991082371386263 18189.118208095188 14.233227471297473 0.2542983351529558
0.7223027486752387 12.988023556951875 15743.650998046704 14.906440379009352 0.25789668569762764
0.7448836958976796 12.986657348299577 13647.373726544727 15.608520297841386 0.26154722552779586
0.7677956283504035 12.986759385253087 11765.312176790974 16.340642740331266 0.265250950578137
0.7910340506200833 12.988124443769243 10231.518637549592 17.10446514111972 0.2690129864201704
0.8146004965963264 12.99063289476863 8966.393646551773 17.90144082395992 0.27283576224064937
0.8384734071111156 12.994110516058967 7815.000228390746 18.732990164808815 0.2767208600338887
0.8626478675818096 12.998368061941877 6821.893630505226 19.600345783210287 0.2806677692300408
0.8871149241442889 13.003304650137675 5961.993105364265 20.505644466927688 0.2846833295179216
0.9118669084514369 13.008803711903358 5216.754799575116 21.450678045711875 0.2887705496806683
0.9368790002823352 13.014682942929138 4570.45926972958 22.43700056382742 0.2929299224179139
0.9621498809840119 13.02087653628484 4009.324218819037 23.466494798401257 0.2971641132669625
0.9876677904946021 13.027268974487878 3520.7283080287752 24.541647992066405 0.30147977018495997
1.0134064766105566 13.033735950897647 3095.736980293194 25.66448476530701 0.30587914637297364
1.0393580437056535 13.040182371302576 2724.8162982949043 26.836797770243972 0.3103622643453837
1.0655030492047597 13.046525794817114 2401.3204831415223 28.061760292519665 0.31493845598577686
1.0918241873141714 13.052641454355957 2118.4375870258273 29.341523137072127 0.31960883756998354
1.1183144334199275 13.058483009602462 1870.9926906816213 30.678644857763906 0.32437675564028207
1.1449397259955194 13.06394587765571 1654.1240125609356 32.076720262186484 0.3292515968965065
1.1716937923195931 13.068951423304089 1464.042669949457 33.537484493569835 0.33422973099143016
1.198542002608774 13.073420672065376 1297.1595310214484 35.065564932782635 0.33932531541078087
1.225480864099966 13.077290586991912 1150.5550832769154 36.66311410245467 0.3445359144927123
1.2524691742105651 13.080460008465908 1021.5550285305291 38.334934986881755 0.34987447145771355
1.2795056303708392 13.08290436787283 904.0804402444553 40.08349983646798 0.35533897385100943
1.3065419831853535 13.084508469901596 807.9419567029653 41.9141726422475 0.3609433583711776
1.333573241171071 13.085234226363545 719.5708585373565 43.83025948925737 0.3666886042264023
1.3605750113895192 13.085040625779351 641.5243183902027 45.83675637238325 0.3725841954412755
1.387501097121129 13.083795143434202 572.6061089294598 47.93883372132657 0.37863920972450427
1.4143520503581388 13.081521500073759 511.56069622743365 50.1410537500662 0.38485833476110315
1.441078375316985 13.07810767518448 457.5273296671334 52.44899042179473 0.39125040638320685
1.4676603089009714 13.07350961823369 409.59674397855736 54.86887068995478 0.39782616426293166
1.4940672574059262 13.067656333575972 367.0971725713571 57.406872738268866 0.4045946498291927
1.5202772172320702 13.060531472535022 329.3295734190236 60.06961181362095 0.41156561298948996
1.546256579881384 13.052067885009164 295.7396899420261 62.86417956093608 0.41874957043724464
1.5719705444322076 13.042209788182497 265.867875009755 65.79818712250336 0.42615786871546385
1.5973925027148268 13.03090694847647 239.28679407693505 68.87981238366424 0.4338027525934417
1.6224847233617203 13.018106674597725 215.47411144362206 72.11785179425661 0.4416974393813677
1.647231016492961 13.003799348553756 194.39804937715525 75.52177724902913 0.44985619988322634
1.6715803667493585 12.98789736514495 175.5071901591353 79.1017750855525 0.4582943486820047
1.6955188428906829 12.97037852680103 158.61691720186724 82.86748635722414 0.4670228964975199
1.718992400298313 12.951189073890298 143.50652684913192 86.83188096062628 0.4760644505516221
1.7419980422003616 12.930311881124215 129.9871163330269 91.00681988773867 0.48543454138000836
1.7644764411150193 12.907682906078618 117.86440227071903 95.40575482796231 0.49515261399191784
1.786403317851759 12.883278541625195 106.9896649680324 100.04295447088643 0.5052386281366688
1.8077456457874725 12.85705281049974 97.23318257279466 104.93459807389095 0.5157169998394969
1.8284722953945456 12.828986570105249 88.4716493087889 110.09693862962803 0.5266092805070985
1.848550067619009 12.799035396331458 80.59302175484208 115.54795254741796 0.5379402437266945
1.8679427056902644 12.767172261530245 73.49742190235314 121.30776826215637 0.5497390089782548
1.8866216806135927 12.733367599357509 67.11315348753048 127.39765503550471 0.5620349199650896
1.9045539631412216 12.697591954767335 61.35349119348417 133.84039953851536 0.5748586132359823
1.921706680168165 12.659825531575969 56.16291631929969 140.66082489864138 0.5882434645134308
1.938038667027947 12.620010700925702 51.47391637778076 147.88693780321262 0.6022290644575159
1.9535342876235777 12.578165882124749 47.23668266610336 155.5476228930828 0.6168526474280797
1.9681711925260292 12.534312362407206 43.40855971012411 163.67571109598472 0.6321591760076956
1.981903749017462 12.488369317235454 39.94193896754841 172.30530374406266 0.6481915217888827
1.9947046021895947 12.44034244201149 36.80153328627652 181.47563797667476 0.6650028698434374
2.006553885632256 12.390222867495092 33.95664325059987 191.2284370896056 0.6826469248077754
2.017424050844227 12.338019408849012 31.376033888628875 201.60960961150786 0.7011827557901991
2.027279515390167 12.28369151685134 29.036955640450675 212.6695014597466 0.720674613711961
2.036108749744132 12.227284292512039 26.910996557539683 224.4623861224031 0.7411891565284223
2.043875569180785 12.168751110732577 24.97873764736143 237.05033876407106 0.7628068498618492
2.0505570461994487 12.108109497767009 23.223021478583522 250.49900425312123 0.7856066925040635
2.056146911085073 12.045393468670918 21.62532500961568 264.8821699174949 0.8096795212435746
2.0606221117614516 11.980629270317186 20.170363812312125 280.28130682797763 0.8351246482145537
2.0639590563143875 11.913809191959357 18.847852153874808 296.78547805202265 0.862047431756767
2.0661390980177723 11.844957598616533 17.643103054424486 314.4944927319812 0.8905671333350209
2.06715919420017 11.77413219017138 16.54654521475722 333.5183370518028 0.9208122552547682
