M[M_sun], R[km], Lambda[1], P_c[MeV/fm^3], rho_c[fm^-3]
0.24162668629717493 15.618656898711224 2160425.4255784233 3.5677272577965504 0.1711233750220791
0.25363842746480975 15.277417876789066 1723286.078664233 3.784731510579308 0.17388707498616726
0.26602950636470224 14.981506968535939 1383211.0182675167 4.011216294976137 0.17666442321622777
0.27879931725487556 14.723818235968315 1116652.2264500493 4.247440441303788 0.17945417648188838
0.2919485277815324 14.498733611486097 906215.69341291 4.494027793346757 0.18226287664290058
0.3054771742262684 14.301599761697934 738936.5524643813 4.751127430854415 0.18508610220473604
0.319387191966856 14.128542085520179 605325.9119140666 5.0194322430049345 0.18793070515039612
0.3336785218212343 13.97633791162 497965.2460008844 5.299151702027344 0.1907930235959279
0.3483529520470429 13.84237351439846 411255.1497571068 5.591031102246783 0.19367969240431204
0.3634087633571489 13.724400031071639 335941.27713903214 5.895216592806559 0.19658538479202992
0.3788540171827892 13.620379506413654 283512.8011291842 6.212580794513207 0.19951796192566976
0.39467683362254297 13.528863080992046 236598.7735986277 6.5433969527843265 0.20247388467317404
0.41089471255475707 13.44822912708012 198031.309749713 6.888335619329238 0.20545632722993215
0.4274935426573425 13.37740159902094 166238.7737870234 7.248115469188876 0.20846861646008352
0.4444805042274704 13.315245324095244 139942.76115769893 7.623018103711927 0.21150666291734738
0.46185204879933545 13.260870545661271 118098.3161813349 8.01394703015816 0.21457592805279627
0.47960623679058595 13.213448750290098 99913.9724675814 8.421627192502498 0.21767839270759673
0.4977543157736628 13.172244162013634 84739.96449575102 8.846530062943954 0.22081197084893486
0.5162819037760144 13.136642373588321 72028.23887342455 9.289467388168466 0.2239792046555523
0.5351878367353887 13.106080971098478 61355.449492304986 9.751351419494592 0.22718342832150942
0.5544861715643392 13.079998221743315 52369.64221383416 10.232990379391698 0.23042599059256563
0.5741545761743154 13.058005034107977 44788.23504868411 10.734898652942597 0.2337041440808157
0.5942052744307657 13.039704921991282 38378.48833807033 11.258233936537362 0.23702299014638556
0.614627110346937 13.024632300554705 32949.67433978741 11.803973104268032 0.24038466733203456
0.6354179956784319 13.012530971281675 28333.49415434932 12.373093401696153 0.24379080543028311
0.6565732030013851 13.003110331193305 24410.516927388242 12.966342795805799 0.24724002796280414
0.6780964965534203 12.996041287378324 21061.501472025928 13.584929120157252 0.25073579791894424
0.699972560925412 12.991108190473472 18201.614633545418 14.230104149699995 0.2542813909808557
0.7221943559950663 12.98802369988685 15755.35726616004 14.903055275634138 0.25787878738005854
0.7447679059292563 12.986660992058209 13657.241120704883 15.604888961479029 0.26152866454507206
0.7676750706718588 12.986738791348897 11855.738939837 16.33671601880592 0.2652313768561889
0.790906107093731 12.988120412374151 10306.915581132935 17.100223340101913 0.26899235997821513
0.8144675232296092 12.99061412066315 8973.072225542015 17.89686294395428 0.2728140405273567
0.8383348555057957 12.994085650096723 7821.466704243775 18.72809650538576 0.27669837620088716
0.862503134137491 12.998339668089189 6785.033066339739 19.595072748024574 0.2806441124466918
0.8869631774820208 13.003273358751477 5966.8374144199015 20.499966694295704 0.2846584486378957
0.9117098841401355 13.008761920244229 5221.231253266667 21.44456843797104 0.28874439010958497
0.9367158376789152 13.014648689810137 4574.513982400457 22.43048456287019 0.29290285865958593
0.9619797185954664 13.020838481731609 4012.571217630646 23.459490678992324 0.2971356674569162
0.9874918672963621 13.02722823450767 3523.768718552291 24.534122809706393 0.30144987620781544
1.013221400563433 13.033688449645732 3098.3512604034704 25.656467637611577 0.30584820673318536
1.0391693471413552 13.0401409707867 2727.3093096237376 26.828190744516895 0.31032974855205003
1.0653102457731198 13.046476253613562 2403.3372700197087 28.052523108766223 0.3149042836264375
1.0916243868029232 13.052599921795121 2120.288043981225 29.33168851901995 0.31957343898348195
1.1181094694189904 13.058433090358529 1872.6052819288418 30.668095463989342 0.32433954197015863
1.1447268271374502 13.063896592961799 1655.7541738012233 32.06540663433541 0.3292124699702879
1.171476234197014 13.068917905199388 1465.410562230271 33.525442740036425 0.33418914904046587
1.1983250151826654 13.073394529829478 1298.4176051965508 35.05265438962383 0.3392826237446109
1.2252533450262337 13.07726222264244 1151.7162798806735 36.64937221532315 0.3444915852920244
1.252237571076824 13.080439919242517 1022.5766749493353 38.32020375741398 0.3498278061521662
1.2792676476424856 13.082895168668632 908.8836922766579 40.067817644561025 0.3552904583883311
1.3063003061947258 13.0845016692487 808.7508391426715 41.897474709290506 0.3608928779901228
1.3333258015270928 13.085234030781015 720.281990924661 43.81235874052584 0.36663539394358663
1.3603245721411863 13.085047964055176 642.2697095697644 45.817690292936035 0.37252875387217416
1.387247951939133 13.083815592236041 573.2057267587329 47.91852093359817 0.37858139297351867
1.414085844280356 13.081530535105449 512.1166483461343 50.11927168954774 0.38479729902709775
1.44081705936872 13.078138964068776 458.03450860227974 52.42577364397101 0.3911866618098778
1.4673969484303588 13.073555708660205 410.0691957543695 54.84411647177114 0.3977595303595304
1.4938000823799733 13.067723203261048 367.48931277633267 57.38047003981638 0.4045249321586703
1.5200052397875738 13.060616621649583 329.6765467816013 60.041440533889705 0.41149260202389565
1.545984828477791 13.052162564110924 296.0708685641785 62.834109719344795 0.4186730402997364
1.5716971138946334 13.04232081882105 266.17071770302624 65.76607795794472 0.4260775757967763
1.5971129731390072 13.031031388027143 239.54803745157017 68.8455113617978 0.4337184340292176
1.6222065657841387 13.018252107313122 215.80644477612037 72.08119351264665 0.441608811375152
1.6469552645057954 13.003966770821762 194.6186380725742 75.48258222843245 0.4497629558580828
1.6713101843858664 12.988086951379973 175.7155319772991 79.05987191987211 0.45819625533196234
1.6952330154832798 12.97056870725733 158.80304911896135 82.82283030198214 0.46692027701263333
1.718710444532525 12.951393652645196 143.68134476294674 86.78406136541142 0.47595616269614893
1.7417269322627922 12.930569394483227 130.14348214331804 90.95581684020668 0.48532107837279664
1.7642081803646437 12.907971871601928 118.00375679938465 95.35107745883538 0.4950326396351901
1.7861381459220076 12.883589278385235 107.12295100743957 99.98455518522931 0.505112605011802
1.8074837246546092 12.857394947882284 97.34580012861217 104.87217430635091 0.5155844428382803
1.8282147152263 12.829350118838855 88.57700603960483 110.02989653279012 0.526468682608446
1.8482966449527716 12.799430162256513 80.68629020085389 115.476187035504 0.5377920009434545
1.8676956202946264 12.767596648432823 73.58787676447065 121.23088501420455 0.549582502859992
1.8863751646719806 12.733797598626495 67.19591132125636 127.31522280850473 0.5618694791432389
1.9043190919533712 12.69808187136476 61.42572720203397 133.75224911952336 0.5746845769384299
1.9214694632255498 12.660317443072103 56.2299965416962 140.56614795126362 0.5880589978161154
1.937813020378063 12.620542340413557 51.53255414437861 147.78516792878096 0.6020333050406796
1.953332542776556 12.578787704084277 47.294106198132994 155.4384728012441 0.6166457970779671
1.967971667545637 12.534942781197502 43.45974333489727 163.55817734913884 0.631939101820457
1.9817159250555587 12.489035320602298 39.99141370057379 172.17899379039935 0.6479583042698881
1.9945271918412963 12.441042767964582 36.84511765106796 181.3397516858685 0.6647553510805636
2.006389320034212 12.390966862453709 33.99693857418006 191.0820929623105 0.6823838402150033
2.0172784823865926 12.338823370289294 31.414908271038794 201.45183531019683 0.7009027219685235
2.027136026611411 12.28450582623332 29.070148772407695 212.4994356362111 0.7203768111935339
2.035971748207443 12.22811208197671 26.94131499678675 224.27882809596827 0.7408718721098329
2.0437644399013912 12.169659217766545 25.0071499837862 236.85221021343477 0.7624690224826157
2.0504681434348226 12.10907635225081 23.248751757030455 250.28444584459726 0.785244995525839
2.0560669014442117 12.04638950944328 21.648815245293587 264.6500144143839 0.8092932009984475
2.0605609014014004 11.98166548064998 20.193745067346065 280.0297908432948 0.834711368144307
2.063914596772486 11.914892616182485 18.867699102693795 296.5131052346961 0.8616061389886329
2.066113222223897 11.846082242796596 17.661941514713654 314.19862646851465 0.8900935096396262
2.0671518413862704 11.775302028427179 16.564017592519896 333.19702813612054 0.9203047734884231
