M[M_sun], R[km], Lambda[1], P_c[MeV/fm^3], rho_c[fm^-3]
0.24162668629717493 15.618656898711224 2160425.4255784233 3.5677272577965504 0.1711233750220791
0.2536433967920986 15.277288027256699 1723235.1061535554 3.7848095277456917 0.1738880474325095
0.26603816755327797 14.981316995836783 1383049.8709303862 4.0113802997942285 0.1766664051176654
0.2788126372324165 14.72357086798169 1116414.312974299 4.247695979392357 0.17945714033862809
0.29196657933589437 14.498463336844706 905941.7277559657 4.494381567199373 0.1822668159968561
0.30550127186276127 14.301287441722241 738725.7409934676 4.751591449224925 0.18509111448872992
0.31941730338414664 14.128182799204854 605157.5547166055 5.020009920781895 0.18793669878029523
0.33371416615168786 13.975988442763684 497721.0071348565 5.299858243725254 0.19080013729846115
0.3483945027535982 13.842081127240366 411033.74859931355 5.591868268646111 0.1936877922195221
0.3634564123808378 13.724039731402689 340692.2227523959 5.896203187040573 0.1965946510938614
0.3789079953928966 13.62006562311266 283332.98739279766 6.213728750945675 0.19952842990610434
0.3947400162936609 13.528504567495807 236416.77508369242 6.544705076279978 0.20248535514904262
0.4109637050710413 13.447923880690295 197894.3291880336 6.889829156517037 0.205469046819362
0.42757015471878795 13.377110308859617 166107.12675345436 7.249808429381123 0.20848262188588546
0.44456439482553184 13.314969850680082 139820.751498805 7.624905804739727 0.21152169023131645
0.46194493571564227 13.260604967163388 117997.14315032281 8.016062389239105 0.21459229206548175
0.47970790547671116 13.21319923647646 99822.08470345575 8.423986697816654 0.21769613288903125
0.49786430288426986 13.172013307649573 84653.42903371478 8.849125012166894 0.22083075939004543
0.5164004013505656 13.136436265459515 71948.16255158043 9.29233976403279 0.22399942636070888
0.5353180498294531 13.105875319780411 61287.39878218923 9.7545206889375 0.22720512681770763
0.5546235219140019 13.079831045250712 52307.85824773051 10.236477191864433 0.2304492114034241
0.5743039324494511 13.057877500724858 44738.60465220253 10.738687857026475 0.23372847194478272
0.5943596912583513 13.039536184715267 38334.50490294594 11.262382499578393 0.23704891044333956
0.6147946323302196 13.024519674948326 32907.966401044316 11.808505523007879 0.24041223200014655
0.6355946607835142 13.012465705675842 28298.140483768842 12.378035700698167 0.2438200691494073
0.6567656109747765 13.003048898188272 24375.929798823145 12.971672279976854 0.24727048910886806
0.6782955626963433 12.995984609796874 21032.27231565099 13.590721445406835 0.25076804803407715
0.7001827339064989 12.99107022949481 18040.621146640995 14.236390359293061 0.25431549397469666
0.72241445496248 12.987996316302645 15733.18274521395 14.909868406830201 0.25791481097292135
0.7450008226745856 12.986646969144003 13540.94909483558 15.612197718066705 0.26156602206065843
0.7679188337412297 12.986763285081375 11838.239866659102 16.344619342813413 0.26527077294414414
0.7911626018121581 12.988129333530253 10291.5825680238 17.10876087806058 0.2690338751342552
0.8147350251395113 12.990659472853123 8958.393633517693 17.906076970137036 0.27285776042275944
0.8386154176735775 12.994127844001985 7809.566829125587 18.737946159272685 0.2767436302641498
0.8627936534727941 12.998388048838525 6816.17664889403 19.605686051762923 0.28069172764710537
0.8872677707924937 13.003334100690891 5956.687525118216 20.511394704797492 0.28470852795185553
0.9120268390246431 13.008834523038944 5212.621181944362 21.456865707365814 0.28879704345600415
0.9370443742271897 13.014724047622838 4566.526068793495 22.443599877378222 0.2929573322093246
0.9623173535621335 13.020934459977692 4005.5625181594187 23.473588560798884 0.29719292314382145
0.987844927907179 13.027314358332573 3517.6194021691895 24.549269583070853 0.30151004714788154
1.013585175693069 13.033771872704113 3093.0018333891485 25.67260468765431 0.3059104827171207
1.0395461297078843 13.04023081380335 2722.2453164669523 26.845515266489077 0.3103951974764421
1.065695953417604 13.046554276751827 2398.949740543578 28.071116156446113 0.3149730673946822
1.0920249714984671 13.052685572499197 2116.2891276208225 29.35148421609631 0.3196446913383369
1.1185208231221075 13.058526596947905 1869.1358792447686 30.68933004506461 0.3244144483308682
1.1451508757513 13.06398208303781 1652.5813384934636 32.08809937575885 0.32929070861884474
1.1719130964837357 13.068991436873938 1462.6107540510793 33.54968154646194 0.33427083631724536
1.1987672287714102 13.073452616034487 1295.8607956487426 35.07864215872588 0.33936855825173123
1.2257100641806487 13.077320479573213 1149.4397163667982 36.6770335609182 0.3445808165110298
1.2527042180783299 13.080490587691806 1020.4826448950985 38.34985678096686 0.34992174043019264
1.2797444807684835 13.082934182608064 906.9848575819578 40.09938507734987 0.3553881174793819
1.3067868330077996 13.084520700987861 807.0365908578979 41.931086973323026 0.3609944929565288
1.3338222941112985 13.085235092276392 718.8078264199589 43.84839248850684 0.36674250487786836
1.360828357884467 13.08503556742161 640.8435337962994 45.85607005514439 0.37264035700717946
1.3877589054063288 13.083779697826062 572.010127511327 47.95941055610174 0.3786977780386212
1.4146131269229243 13.081497614664732 510.97952989518285 50.16311929335146 0.3849201648450616
1.4413373258561504 13.078045579575747 457.03987784333435 52.47250965515931 0.3913149813861307
1.4679293121254846 13.073453234997972 409.1539949236109 54.89394771970958 0.3978936671170261
1.4943383061011681 13.067591728119945 366.6623775373694 57.433620101788556 0.40466527760538623
1.520549077660385 13.060449468326073 328.9525811668404 60.09815123403224 0.41163957805822693
1.5465315176378172 13.051969910262832 295.39201741047 62.8946427770933 0.4188271017442978
1.5722478111614449 13.042094225960644 265.55801739671494 65.83071680263315 0.42623921318510344
1.5976709001690277 13.030773247907488 239.0047950331968 68.91456313208135 0.4338881766727491
1.6227580206566465 13.01796018989968 215.31703449333975 72.1549912617087 0.44178723074112686
1.6475098049885053 13.003627301111942 194.16873651774458 75.56148735853606 0.4499506692926806
1.6718583223550254 12.987701087700898 175.29840944594613 79.1440461218833 0.4583929665261524
1.6957964808316632 12.970160688975167 158.42320449604009 82.91273058108409 0.46712686759217753
1.7192617499483216 12.95092112191478 143.33810275698224 86.8803311862598 0.47617416647471744
1.7422643017062183 12.930025710615645 129.82786953983248 91.05849628561364 0.4855495023438819
1.7647442466855081 12.90738632134233 117.71926165906937 95.46115501197075 0.49527417436589233
1.786669659767774 12.882962204160213 106.85636722267348 100.10212667326698 0.5053663191822927
1.808011037239711 12.856715838317546 97.12067158351076 104.99784901575663 0.5158513133471279
1.8287237525941227 12.828591285966134 88.36294149905554 110.16485306383348 0.5267516797292723
1.8488049652399952 12.798635863111365 80.49501644962633 115.62067159236071 0.538090456180133
1.868192650299466 12.766737794709778 73.40897452447196 121.38567438725244 0.5498975972995405
1.8868656615594772 12.732901170837065 67.03454292933287 127.48118545517215 0.5622025648508613
1.9047903600620115 12.697097657800681 61.280856005624045 133.92972577235483 0.5750349709571309
1.9219356283550768 12.659295696588432 56.095514535435015 140.75676654451308 0.5884303953243528
1.9382515568045577 12.619418547838176 51.41128780635262 147.99006915212072 0.6024274427382452
1.9537526829908218 12.57759097943724 47.179430770369116 155.65823519816385 0.6170622688186561
1.968371945899867 12.533675953536884 43.354926086086735 163.794772794616 0.6323820369827197
1.9820923528349959 12.487690820990048 39.89430549632632 172.43331098034014 0.6484278731546474
1.994886343609954 12.43962846174622 36.75958354666672 181.61335303087537 0.6652537197241911
2.0067189722471075 12.389467976694595 33.91672008653923 191.3767538525757 0.6829135556313589
2.0175785982128356 12.337225461431503 31.338178952823643 201.7695141228591 0.7014665705245682
2.0274207356282257 12.2828551150388 29.002867184630183 212.84167960923833 0.7209758290834053
2.036235289978267 12.226405348510498 26.879750913484266 224.6484307459656 0.7415107390893444
2.0439861340659338 12.167827619699661 24.950830827139313 237.25115584407476 0.7631492614306268
2.050652108427651 12.10714019056682 23.196162299562445 250.71647965196252 0.7859733068686097
2.0562258798585775 12.044388652935845 21.601406027918294 265.1174874278838 0.8100711032525209
2.06068476596153 11.9795781331016 20.148538056097763 280.53608198434785 0.83554300302074
2.0639971863933018 11.912698785472317 18.82771331736227 297.06157460799324 0.8624947576487281
2.066165106111025 11.843816642050669 17.624782656525987 314.7944122265914 0.8910472454562673
2.0671656778616607 11.772941863637726 16.528796108885413 333.84405663668184 0.9213267033207877
