M[M_sun], R[km], Lambda[1], P_c[MeV/fm^3], rho_c[fm^-3]
0.24162668629717493 15.618656898711224 2160425.4255784233 3.5677272577965504 0.1711233750220791
0.25364479091617975 15.27724729176274 1723111.035133131 3.784835556551772 0.1738883718690206
0.266041027598719 14.981249358916838 1383030.1086880364 4.011435017660266 0.1766670663507842
0.2788215852521097 14.723342523375479 1116355.0529591772 4.247781237633314 0.17945812920574175
0.29197286160236025 14.49835160258096 905834.6091348699 4.494499603184826 0.18226813035494882
0.30550927593167576 14.301184242621185 738652.6959500043 4.75174627097003 0.18509278685905878
0.31942803020045174 14.12805595784872 605044.2811038541 5.0202026688743455 0.18793869861614831
0.3337274938801633 13.975884734588545 497641.37935034843 5.300093992859781 0.19080251090106728
0.34840846170812056 13.841962707826907 410970.7149009075 5.59214760756439 0.1936904949003999
0.36347208668595854 13.723921957843412 340637.1030248434 5.896532391668743 0.19659774305339628
0.3789267220047448 13.619980929119862 283265.76654417097 6.214111805305111 0.19953192290063493
0.39476058425523497 13.52838743419938 236373.57467100729 6.545141582795979 0.20248918272149652
0.41098691244254054 13.447827344870756 197843.2331837986 6.890327542155854 0.20547329128060157
0.4275960445869309 13.377005914981778 166053.29340393477 7.250373371135467 0.20848729550423697
0.4445920128398245 13.314888666101279 139784.07173587597 7.6255357412928735 0.21152670493132736
0.46197553348931236 13.260518936187266 117960.34129681006 8.016768308485933 0.21459775292156716
0.4797424427794325 13.213102296466426 98720.63700168952 8.424774104644788 0.21770205308760426
0.4978999253645854 13.171948511278808 84629.73505073032 8.849991003387577 0.22083702953649276
0.5164406210294077 13.136362577557467 71926.14821952274 9.29329835446481 0.22400617489711144
0.5353605479648653 13.105814673074885 61264.694851121705 9.755578378351577 0.22721236831930403
0.5546684339526525 13.079779438567924 52293.29148578488 10.237640874996975 0.23045696107913255
0.5743533386168629 13.057813658203985 44721.39706117949 10.739952477728625 0.23373659120142098
0.5944128049771406 13.039493425949509 38322.159356871394 11.263767076453505 0.23705756130471098
0.6148502763835283 13.024505093655883 32893.58474882166 11.810018235827911 0.24042143181799794
0.635656273185154 13.01242045780239 28053.975565230878 12.379685239565319 0.24382983619144039
0.6568287698338378 13.003002311918106 24365.39982254895 12.973451069924407 0.24728065594278112
0.6783619115946723 12.995969946001182 21022.914618533046 13.592654746399276 0.2507788121360407
0.7002524480879128 12.99105811396737 18167.780736906177 14.238488537831657 0.25432687669567017
0.7224884951791097 12.987995741285728 15725.158978909378 14.91214249550262 0.2579268349369566
0.7450782025996208 12.986638957709937 13630.514825436776 15.614637269519811 0.26157849142946826
0.7680013040130869 12.986746759127675 11833.311271791754 16.347257394689766 0.26528392297110154
0.7912482563290673 12.988134229156437 10287.358644817037 17.111610670792448 0.2690477327112895
0.8148229715689543 12.990679266202324 8953.822600624626 17.909152622005863 0.27287235417095734
0.8387086899804177 12.994141630734209 7805.615500447957 18.74123402832999 0.27675873632127895
0.8628902221197695 12.998423176653887 6812.258459042876 19.609228889650502 0.28070762212635597
0.8873734527573569 13.003376277797303 5953.704579181733 20.515209563877686 0.2847252452558482
0.9121284179781413 13.008880265057565 5209.376533481909 21.460970807738523 0.28881462030701643
0.9371544248947135 13.014750905480232 4563.812038019108 22.447978118365082 0.2929755169297916
0.9624396707132298 13.0209619611711 4003.4228514404863 23.478294887986024 0.2972120369369145
0.9879615807213535 13.027354935866317 3515.4476797969546 24.554326149682602 0.3015301344865651
1.0137064884171165 13.033801562836791 3090.909138062929 25.67799191997795 0.30593127308417994
1.0396720937654322 13.040258841852893 2720.540716191936 26.851299026685293 0.31041704748098436
1.0658253531817803 13.046585252751854 2397.421553205053 28.077323519263828 0.31499603112891317
1.0921592438293242 13.05271721665694 2114.9573565557616 29.35809318102058 0.31966847955413913
1.11865995848271 13.058550035725393 1867.7737213526543 30.696419519015613 0.3244394569096168
1.1452922346271022 13.06400686553353 1651.5404359283039 32.095646219594364 0.3293166388309293
1.172056479433591 13.069018263551628 1461.5160541229905 33.55777428663408 0.3342981096860219
1.1989145539829187 13.07347638137749 1294.9624563158943 35.087318992718394 0.33939725018944944
1.2258623139448888 13.077342021174879 1148.6578523271617 36.68626930856966 0.3446106096032904
1.2528597531791876 13.080504365318465 1019.8557949297872 38.359711992958815 0.3499528362343097
1.2799041981227122 13.082944691798017 906.3819991686033 40.109925373047126 0.35542072563298394
1.30694865777369 13.084522011992162 806.5134511845051 41.94231020848341 0.36102842249673134
1.333987577122657 13.085241373176224 718.3393164316116 43.86042449836659 0.3667782702336688
1.360997446725959 13.085030625598735 640.373451525909 45.86888562792044 0.37267762295194823
1.3879299921051769 13.083771277680007 571.5851708046087 47.97306443262766 0.3787366413787812
1.414780529035675 13.08146321853404 510.63789959266046 50.17776119783247 0.3849611930749886
1.4415119569864712 13.07801805522644 456.7143628876322 52.488116343282066 0.39135783150439507
1.4681077979410055 13.073418226353066 408.85624489274704 54.91058829844842 0.39793846056224824
1.4945180444511648 13.067546084674193 366.3928237838458 57.45136927598607 0.4047121452042028
1.5207303277827047 13.06039641230123 328.7203703061105 60.1170898076037 0.4116886607962716
1.5467145219742628 13.051903572105154 295.17464325922134 62.91485820424285 0.41887855161359117
1.5724308140397252 13.042018672346602 265.3607581573584 65.85230379465114 0.42629319411605054
1.597844693840856 13.030680394841822 238.81674275814007 68.9376243259707 0.43394486555990863
1.6229424606600715 13.017857081564651 215.15341359496497 72.17963795765529 0.44184681857300595
1.647694695605089 13.003512507461899 194.02170668953738 75.58784033410788 0.45001336239704487
1.6720415563710487 12.987576318631206 175.15633248794305 79.17209892071769 0.4584584133848882
1.695979239365537 12.970015954897256 158.2928864077921 82.94275691162167 0.467195868012302
1.719460758323786 12.950797913782775 143.22165418480793 86.91248562128823 0.4762469804497738
1.7424424684075352 12.929888024682098 129.72881111790156 91.59196793554761 0.4867159107962222
1.7583180112903127 12.906709512317219 120.39595300452532 96.0515835988915 0.9854701240051363
1.7626999611424246 12.874129626398872 115.6249677641461 102.26634616732838 1.4309718394472188
