M[M_sun], R[km], Lambda[1], P_c[MeV/fm^3], rho_c[fm^-3]
0.24162668629717493 15.618656898711224 2160425.4255784233 3.5677272577965504 0.1711233750220791
0.25364424064950597 15.27727675270649 1723231.2628936819 3.7848234759954615 0.17388822129071402
0.2660406224171004 14.981228560961219 1382996.9266764247 4.011409621797374 0.17666675945676874
0.2788156794245964 14.723489583895951 1116377.4552457486 4.2477416671562 0.17945767024783868
0.29197049749853127 14.498419984270482 905889.7337490846 4.494444819603753 0.18226752032705898
0.3055074705009602 14.30116802675845 738643.1126813157 4.751674413978629 0.1850920106664105
0.3194219878934146 14.128142260872961 605097.2194582131 5.020113209020404 0.18793777043563534
0.3337216491037344 13.975900225001826 497661.299297339 5.299984574736974 0.19080140924212813
0.34840199644940556 13.842019247993779 411001.70329456095 5.592017957843878 0.19368924050368855
0.3634649785768622 13.72397603856179 340640.6414517302 5.896379597386575 0.19659630797716346
0.37891845362246285 13.619990243217924 283306.0308205722 6.213934017239628 0.19953030168754848
0.3947511483305881 13.528447957232865 236408.21922983605 6.544938985398543 0.2024874062160167
0.41097643894255625 13.4478674213709 197871.41372659247 6.890096224035205 0.20547132127841725
0.4275844352784888 13.37704145843414 166070.40794554917 7.25011116140225 0.20848512631031269
0.4445795435377207 13.314917202111241 139801.83455088997 7.625243364540122 0.21152437742437782
0.46196124160027985 13.260592495973219 117981.5646311156 8.016440664625836 0.21459521833142062
0.4797258026041833 13.213148200763976 99807.8126659521 8.424408638488968 0.2176993052930248
0.4978833239484932 13.171979193439915 84641.06383036236 8.849589062361405 0.22083411931172708
0.5164219480465414 13.136396845745848 71937.44255505754 9.292853433467208 0.22400304262555074
0.5353405300034861 13.105842291538295 61275.376599225565 9.755087460379029 0.22720900723500595
0.554647924458501 13.079818273731634 52300.141703252455 10.237100759705866 0.23045336412199344
0.5743296944639378 13.05785534681512 44728.580239371106 10.739365511865936 0.23373282269876325
0.5943870280268779 13.039521752768211 38327.226050209116 11.263124432269942 0.2370535460522226
0.614824583995471 13.024499668952684 32900.89008228025 11.80931611647448 0.2404171617608688
0.635629366453811 13.012428507765367 28290.993954022622 12.378919611299624 0.2438253028496673
0.6567994924316038 13.003012760652421 24369.864845514683 12.972625448659896 0.24727593703019513
0.6783314367723131 12.99597588837849 21027.308907178733 13.591757407237212 0.2507738159919979
0.7002199209955372 12.99106567866131 18172.012534216236 14.237514668849629 0.25432159340891297
0.7224495144038663 12.988019673979672 15728.357367504932 14.911086975580682 0.2579212540052481
0.7450414227845287 12.98665184129611 13633.478883698412 15.613504947885247 0.261572703752371
0.7679625392710387 12.986755855209408 11835.431365574352 16.34603293610319 0.2652778193521523
0.7912075945120134 12.988138715049764 10288.288817862069 17.110287929249186 0.2690413006670825
0.8147831634609456 12.990668454233237 8956.121774310068 17.907725043999616 0.27286558041539444
0.838665103306511 12.994136853196396 7807.3448068607795 18.739707945999736 0.27675172476258764
0.8628478544243524 12.998405150816186 6814.461836907827 19.607584458522094 0.28070024460097126
0.8873256655899687 13.003369253942328 5955.117324117458 20.513438868426505 0.28471748579383044
0.912082595177832 13.00884392418868 5211.04968996005 21.459065390365055 0.2888064618616073
0.9371033289799968 13.014738634113952 4565.024219214011 22.445945916767954 0.29296707632131724
0.9623869886867474 13.02094559516651 4004.4872063085286 23.47611039718122 0.29720316507068073
0.9879079524450147 13.027335834503559 3516.4739085930682 24.551979086270165 0.3015208107178308
1.013649448815829 13.033792929131613 3091.7627436481366 25.67549136968484 0.30592162297902004
1.0396144886622445 13.040245847060518 2721.3962633778056 26.848614416909673 0.3104069055086685
1.0657652410845526 13.046581070011895 2385.908368334169 28.074442281958838 0.31498537217926403
1.0920963855357846 13.052707729232225 2115.639811511166 29.35502552850692 0.3196574378886382
1.1185950123749477 13.05853728533025 1868.4799069326455 30.69312882307298 0.32442784876644737
1.1452265336365912 13.06399366755477 1652.0514494851764 32.092143221161514 0.3293046028733455
1.1719894920614293 13.06900663851306 1461.9676721994172 33.55401789187461 0.33428545024838197
1.1988458921192482 13.073467326276333 1295.4255876228488 35.083291470177215 0.3393839322642696
1.2257916820293284 13.077332704713493 1148.9858213385307 36.68198234674122 0.34459678052803927
1.2527870030471135 13.080493315399865 1020.1002451176281 38.35514819250305 0.3499384652641903
1.279829717991293 13.082937149137697 906.6822701913414 40.10503285614994 0.35540558982018833
1.3068735015626265 13.084525890006317 806.7280158660786 41.93710067888828 0.36101267329952497
1.3339112474201682 13.085237914546205 718.5454566561395 43.854839542334325 0.36676166885601436
1.360919563408097 13.085032673025905 640.6037487537723 45.862936948855506 0.37266032500129437
1.3878502101280665 13.083774741773029 571.7836409278284 47.966726619278504 0.37871860191609885
1.4147070726140243 13.081482090657294 510.7967805076487 50.17096474624402 0.3849421486686533
1.4414303537302233 13.078030387614485 456.8634648371586 52.48087204368297 0.3913379413719005
1.4680251129637616 13.073431595559974 408.9956787015087 54.902864070338985 0.3979176683293498
1.4944342386266138 13.067568791727641 366.51733032645006 57.44313044012973 0.4046903901383426
1.5206456094543725 13.060421491391537 328.8102791464017 60.108298853336905 0.4116658774486339
1.5466297840900847 13.051935248699872 295.28034499672714 62.905474533565794 0.41885466942568317
1.5723466086164144 13.04205267146052 265.45322254669344 65.8422834405128 0.42626813698700006
1.5977701214182884 13.030727059270557 238.90830981350186 68.92691964184652 0.43391855137022245
1.6228570795721469 13.017904709852717 215.22941890631208 72.1681972751618 0.4418191586600309
1.6473541500925986 13.003590576645808 194.2840971443814 75.51286163286598 0.524861448382764
1.6636587748862182 12.984366057872606 180.25478477279484 79.65913838728237 0.8766887031310692
1.671512619593106 12.95499231673719 171.28206681370813 84.49615085246953 1.1837035091360475
1.67324948407182 12.915173135179412 165.19785857675618 90.10390927290092 1.4674375281923155
