M[M_sun], R[km], Lambda[1], P_c[MeV/fm^3], rho_c[fm^-3]
0.24162668629717493 15.618656898711224 2160425.4255784233 3.5677272577965504 0.1711233750220791
0.2536341285605291 15.277538540344006 1683973.0155516844 3.7846356129165573 0.17388587966806363
0.2660189382075632 14.981735502096466 1383504.9737297115 4.011014709007757 0.1766619871687678
0.27878232438753525 14.724133430242714 1117073.7450193954 4.247126357414935 0.179450533582092
0.29192495265631796 14.49913716466836 906525.4189929299 4.493592980445169 0.18225803490032658
0.30544763712208406 14.301997640467311 739282.3037758203 4.750557137446058 0.18507994194750443
0.31935020089718824 14.128962815720921 605652.7428841925 5.0187222794410635 0.18792333900440017
0.33363501125718215 13.976761970101336 498246.9237694163 5.298283391584393 0.19078428115055496
0.34830161252125713 13.84285600446543 411522.6445397078 5.590002288560709 0.19366973834888238
0.36334927883717166 13.724800035590206 341132.16314630164 5.894004179638478 0.19657399755098134
0.3787857371002862 13.62081975796053 283734.22299246927 6.211170126883016 0.1995050983354368
0.3946013967068995 13.5292701769826 236802.02282718758 6.541789506857936 0.20245978954395266
0.41080845381089376 13.448650433899827 198221.68387203055 6.886500386618561 0.20544069761804248
0.427399111331619 13.377768522261462 166399.82865944854 7.246035248569336 0.20845140732801293
0.444375105385251 13.315615832706381 140080.9585906405 7.620698655311313 0.21148819861667806
0.4617367350109931 13.261237517720154 118227.3514789131 8.011347927954827 0.2145558218959696
0.4794817509563331 13.213759243113046 100037.72800119981 8.418728193745242 0.2176565962896681
0.49761784207776816 13.172540154182528 84844.64018405766 8.843341865398289 0.22078888693649223
0.5161339732370646 13.136889546043525 72122.68609993298 9.285938437388367 0.22395436062205595
0.5350314216415096 13.106300298252584 61439.66050264294 9.747457817939143 0.2271567706642574
0.5543160252021033 13.08023746937109 52440.94969408622 10.228706778722893 0.23039746348314943
0.5739738909677632 13.058199395466367 44852.59992516449 10.7302436697322 0.2336742576466716
0.59401293251516 13.03984797759103 38436.619956937364 11.253137625010124 0.236991148299739
0.6144224059028203 13.024755915674096 32996.818392362016 11.798405396069576 0.24035080637667194
0.6351988372170353 13.012656864542665 28378.713480438524 12.367022354209974 0.2437548583076277
0.6563412557457398 13.003179091060636 24448.840723728405 12.959796285708297 0.24720261079560962
0.6778522736709885 12.996111169244726 21095.654616219006 13.577814268754215 0.2506961843325149
0.6997137962963357 12.99114348573031 18232.741995234206 14.222382857835031 0.25423950259565053
0.7219212258627375 12.988047531784678 15782.864217264607 14.894686998271538 0.2578345411431965
0.7444824975072326 12.986655714939124 13681.319238845384 15.595912130434437 0.26148278093933947
0.7673740952979179 12.986743400347963 11878.165012678537 16.327009186200996 0.26518299073021107
0.7905919499739628 12.988079057781883 10257.493799514914 17.089737854077338 0.2689413726103611
0.8141319345389173 12.990570061430606 8989.736203577731 17.885546929783885 0.27276034684925193
0.8379912874289502 12.994018249190777 7837.500497810817 18.715962887224222 0.2766424694210469
0.8621467631377435 12.998279030163953 6840.905741345568 19.582038889922583 0.2805856377454123
0.8865912569890267 13.00319254359262 5979.180573884834 20.485932708768694 0.28459694953731246
0.9113217857916651 13.008672193376707 5232.275568922255 21.42946739273557 0.2886797318069529
0.93631718328989 13.014552973649803 4583.982624342327 22.414379321451506 0.29283596665566664
0.9615616087924915 13.020740414457368 3998.5361115156998 23.44217935840921 0.29706536104033365
0.9870589084880238 13.0271189257576 3531.476903932306 24.515524041938626 0.3013759921327237
1.0127725871807132 13.033579852915025 3105.4138527105806 25.636636269079517 0.30577161396404945
1.0387009462495593 13.040017344374021 2733.4756502709133 26.806919010594306 0.31024938777168193
1.0648332588519747 13.046358501920764 2409.0225612171453 28.029694490133995 0.3148198306394728
1.0911330062385116 13.052487130106774 2125.2669427235087 29.307383853073336 0.31948595710921507
1.117602801492701 13.058333942470203 1877.0614810013758 30.642024940941255 0.32424757651077873
1.1442104629746799 13.063801078594311 1659.6528466380928 32.037448119273854 0.329115778549075
1.1709424602347394 13.068823821193659 1468.9975726938505 33.49568542140147 0.33408886380855807
1.1977713077164651 13.073289594129054 1301.6398266369515 35.02075088990193 0.3391771275200889
1.2246935993486578 13.077189777489828 1154.5627406235171 36.61541501904904 0.34438204463330513
1.251667789356225 13.080390656238718 1025.1683547681005 38.28380270475606 0.34971249559725004
1.2786814395106265 13.082854192562289 911.1983605080679 40.029067520314484 0.35517057844949246
1.3057031243345887 13.084475035492318 810.8063479938089 41.856215557462356 0.3607681453234122
1.3327249266147507 13.08525186182352 722.1558153136351 43.76812864738362 0.36650391923264825
1.359705173521974 13.085066772874084 643.9564482603876 45.77058182263639 0.37239176883974473
1.3866181957206103 13.083851158388432 574.7819844359349 47.86833316197291 0.378438542374508
1.4134467858366253 13.081597205621923 513.4815248944784 50.06545513179059 0.38464649910155496
1.4401692506028843 13.078239567717478 459.2677098822307 52.368413619994314 0.3910291726749816
1.466736848720092 13.073674845708801 411.18639977364586 54.78295938052434 0.397594906468757
1.4931376881136866 13.06788975191672 368.5000137642635 57.31524175704214 0.4043526935545224
1.5193384011787 13.060817493935515 330.61494509657524 59.97184457650201 0.41131223151539154
1.5453109673860002 13.05240070349519 296.8912856616154 62.75982522683474 0.4184839803604193
1.5710199106496878 13.042600332384955 266.9104404738849 65.68675747045677 0.42587922515328647
1.5964376237890665 13.031359921481162 240.2150368778486 68.76077837204771 0.4335101439069594
1.6215327064401392 13.01863872260071 216.41766401450906 71.99063976604639 0.4413898813635946
1.646264412665004 13.00438216281884 195.18520444320419 75.3857647426124 0.4495326293537282
1.6706281320831813 12.98855760103062 176.21165266258734 78.95630969118912 0.45795371451190986
1.6945601131847525 12.971113306259825 159.25362063515172 82.71252877385875 0.46666680442225594
1.718053682526591 12.952013103209714 144.0892865149482 86.66594915871462 0.475688696660292
1.7410554848432072 12.931208731479492 130.51620106212985 90.82984475332292 0.4850408368481386
1.7635419006788302 12.908671253410777 118.34749307391061 95.21603420724493 0.4947363245875079
1.7854802983048779 12.884352227702733 107.43114764764003 99.84032325186456 0.5048013587569261
1.8068268261517682 12.858202899263661 97.63471393731953 104.71771699834048 0.5152559718363957
1.8275771972966723 12.83025465438199 88.83175814831121 109.86432878109864 0.5261214608019933
1.8476565715835833 12.800363131768638 80.92576563537091 115.29895940878005 0.5374259098231952
1.8670848164326603 12.768646615441147 73.80372011697729 121.04102460314088 0.549196016639145
1.8857734383968388 12.734923276867349 67.38966828092238 127.11166565733484 0.5614609415650519
1.9037298411017345 12.699259490844755 61.60938425326278 133.53392463484928 0.5742525198486115
1.9209013442845222 12.661582588698005 56.392925994740295 140.33236802753336 0.5876035056226769
1.9372716600633353 12.621936304634312 51.688056923584824 147.53388240330258 0.6015499448301875
1.9528245060936436 12.580282909451235 47.4296362291183 155.16897281100455 0.6161350676191338
1.9674800596249036 12.536507720046107 43.58463486052893 163.26798796773107 0.6313957413476362
1.981246409945808 12.49069285552644 40.10223634762883 171.86714658403437 0.6473825125000033
1.994102370973199 12.442828013480055 36.9501768025626 181.0042731784791 0.6641442723276809
2.005978751556473 12.392811479984625 34.052942687126055 190.7208091108861 0.6817343559023495
2.0168869670040963 12.34072632293151 31.50545110931278 201.0623481785223 0.7002114207295387
2.0267903737768322 12.28654557279477 29.152983999701696 212.0790970383913 0.7196399553069007
2.0356662789783027 12.230271505333267 27.01682838127746 223.8257250760886 0.7400886727531177
2.043490639000914 12.171906635211956 25.075950912457625 236.36215711084265 0.761631877188224
2.050231546995744 12.111427316584306 23.31211864891377 249.75486391489926 0.7843522400984859
2.0558680928105866 12.048835886653157 21.708671309738495 264.07702287380476 0.808339709784817
2.060400492780858 11.98421929310295 20.248001073105048 279.40904234883914 0.833691381356121
2.0638034681184023 11.917567655122413 18.91886567917589 295.8401715306934 0.8605146412007755
2.0660481080698667 11.848866927324716 17.707956889076062 313.4684865882101 0.8889246992987205
2.0671321067415604 11.778194405638883 16.605488067679936 332.40390232252605 0.919051685050174
