M[M_sun], R[km], Lambda[1], P_c[MeV/fm^3], rho_c[fm^-3]
0.24162668629717493 15.618656898711224 2160425.4255784233 3.5677272577965504 0.1711233750220791
0.25363746703138296 15.27743699633764 1723245.0336020284 3.7846939435702653 0.17388660673152245
0.26602499360437976 14.981605609408104 1383441.0390151192 4.0111373247022 0.17666346890707232
0.2787921678122922 14.7239580463435 1116853.9293051595 4.247317399244452 0.17945274937942052
0.29193869877509204 14.498907648824554 906324.6264395904 4.493857454060467 0.18226097987541404
0.3054653290147182 14.301786572659697 739090.8090183518 4.750904014333025 0.18508368887990817
0.31937321496833043 14.128681836240006 605457.7629224146 5.019154106956838 0.18792781938154646
0.33366087293470864 13.976535694174526 490108.6381087379 5.298811528384228 0.19078959861179184
0.34833254997070995 13.84259961240612 411361.2658595718 5.5906280452271835 0.19367579271677024
0.3633859479737763 13.72452577367596 340968.30611316196 5.894741602531705 0.19658092358284984
0.37882753798254004 13.620554855997577 283596.9070163782 6.21202812811704 0.19951292227359038
0.3946477424732609 13.528997954939323 236675.96252068726 6.542767187605703 0.20246836248332858
0.4108613754277509 13.448382666304763 198104.73724910687 6.88761660488812 0.2054502038012289
0.42745717883969087 13.377543748675208 166312.92175669715 7.247300464619169 0.2084618741361461
0.4444397799840615 13.315377415519407 139998.130507006 7.622109364850548 0.21149942877169364
0.461806192573622 13.261031813253497 118148.46001647985 8.0129287158433 0.21456805056829906
0.47955780837788486 13.213566626214886 99959.60929063913 8.420491369635062 0.21766985290748486
0.49770084501432393 13.172365042514935 83902.343706532 8.845280922144383 0.22080292653582917
0.5162245649886184 13.136745927065878 72064.35358334659 9.288084726877504 0.22396947063386502
0.5351267936755878 13.106158030886483 61384.18705101741 9.749825872009382 0.22717298361590632
0.554418682276583 13.080113397358872 52398.98637078258 10.231312011314348 0.230414813315904
0.5740831060907479 13.058079428821673 44814.28269081916 10.733074758106397 0.23369243411099538
0.5941294198437188 13.039742486297717 38402.23471441867 11.256237104133913 0.23701051390139352
0.6145471776653927 13.02467891489922 32967.64031369775 11.801791549692986 0.24037139984037487
0.6353319037006683 13.012602120278475 28351.835142038977 12.370714605632742 0.24377672040227794
0.6564823766652087 13.003121839333287 24423.99066881282 12.963777681285402 0.24722536682008028
0.6780009427067567 12.996080791263223 21075.325780795316 13.58214128751954 0.25072027601372254
0.6998709514545857 12.991130722092901 18214.182739885313 14.227078666236217 0.25426497758540595
0.7220870367038118 12.988042565941583 15765.826082416534 14.899776249814206 0.25786144993451043
0.7446549275178695 12.9866591950021 13666.306372318797 15.6013714534751 0.26151068537741123
0.7675569301139064 12.986750658191594 11864.32723030265 16.33291243018447 0.265212416920884
0.7907834968655305 12.988101193004889 10314.606151777853 17.096114601302364 0.2689723805727686
0.814338514417293 12.990602172136825 8979.900472190002 17.892428721953927 0.27279300046102706
0.83820079536546 12.994056436105184 7827.308963484619 18.72335645991723 0.27667659814452467
0.8623625009349479 12.99831284902918 6832.653537743484 19.589965297181735 0.28062119853586065
0.8868169823744875 13.003251661185763 5971.656009285518 20.49446728232139 0.28463434936192694
0.911558166696481 13.00872195787676 5225.644020212248 21.43865082869423 0.28871905262032427
0.936558655129692 13.014606622523557 4578.522106561586 22.424173394012904 0.29287664565718735
0.9618170842615127 13.020795664581735 4015.985319834582 23.45270681943271 0.2971081161875635
0.987322203274015 13.02719211753204 3526.8306052789258 24.52683436369319 0.30142092267179277
1.013045908309132 13.033642633482671 3101.074913086294 25.64870280055747 0.3058182407315704
1.0389879569528822 13.040095069552608 2729.672917213949 26.819854677925242 0.3102982563935385
1.065122916303859 13.046426525751178 2405.5057781626497 28.043576836024034 0.31487118747342663
1.0914312619905007 13.05256220731509 2122.2518439414084 29.322163725392198 0.31953915557467516
1.1179108335427308 13.058396931511647 1874.480477366437 30.657878544829096 0.324303501125781
1.1445226508437745 13.06385285669908 1657.363446198674 32.054449710153705 0.32917457666411915
1.1712673776361548 13.06888203032299 1466.8201166591987 33.51378077111187 0.33414984700279077
1.1981096285280792 13.073358572701943 1299.7460013027774 35.04015119910973 0.33924127908320334
1.225033978886491 13.077236707674182 1152.841236704786 36.636064056690344 0.3444486552323337
1.2520124750806552 13.080420665784752 1023.5959627924283 38.305937678134065 0.34978261434044294
1.2790373623504703 13.082875245010822 909.819215564237 40.05263080101229 0.355243475367988
1.3060645693826716 13.084482299424627 809.5112298146084 41.88130439335979 0.3608439926752722
1.3330877857471621 13.085231004412636 721.0625908085239 43.7950238623584 0.3665838657207342
1.3600816417058872 13.08505801981715 642.9062095663351 45.799227140220786 0.3724750655321079
1.3870004594571592 13.083834734544626 573.7918579290787 47.89885073407222 0.37852540523598927
1.4138349745700136 13.081555389470907 512.6742695260957 50.09817901189109 0.3847381950198427
1.4405633522016525 13.078181399707656 458.5169857388765 52.40329193764063 0.3911249354674621
1.4671356238569493 13.073594508181698 410.5225282440362 54.820146308150434 0.3976950069900034
1.4935411679060984 13.067784094253689 367.8791218177358 57.35490394223511 0.4044574235753745
1.5197438830438894 13.060695324244454 330.04399232598615 60.014162257637935 0.4114219054382989
1.5457204746503725 13.052255690174958 296.38986429747683 62.804993459903905 0.41859893710461404
1.5714322035333133 13.042433904528933 266.4810995622782 65.73498747944691 0.4259998302279864
1.5968459485419177 13.03115275611059 239.807379610868 68.8122990367565 0.4336367916929359
1.6219402513496468 13.018396649986409 216.0538674139885 72.0456992628978 0.44152299762586517
1.6466784607444331 13.00412667234162 194.83439331945465 75.44463235598107 0.449672674010869
1.6710433732293921 12.988270679307032 175.90573096442589 79.01927781492496 0.45810118469058675
1.694974966126244 12.970795003902463 158.98592381471553 82.7795941079484 0.466820920364668
1.718463409419925 12.951660202618182 143.83241379753466 86.73776296037558 0.47585131958799143
1.741463804223421 12.930821657352151 130.28787675486845 90.90643694104077 0.48521122627324
1.7639477344627308 12.908247184616437 118.1375193727471 95.29814106475162 0.49491648536644794
1.7858797156199415 12.883885761834987 107.24068197067986 99.92801622430086 0.5049905963869917
1.8072179874467273 12.85769373903344 97.46631252034584 104.81173999289258 0.5154561104469763
1.8279659069732117 12.829707352741776 88.67895718330863 109.96499226019357 0.5263325680659264
1.8480409364807624 12.799785608747738 80.78323900883817 115.40671110361518 0.5376484876424732
1.867455740319127 12.768008108941588 73.67066524583986 121.15645587823259 0.5494309924143885
1.886147652153421 12.734267637386328 67.27283102382232 127.23542320933905 0.5617093219844456
1.9040818234313919 12.698522073207771 61.49988112224261 133.66671634037286 0.5745153990193291
1.9212501890310487 12.660824109845656 56.296384067498 140.47449784525034 0.5878804285568276
1.9376099937013345 12.621112275573747 51.59416706314836 147.6866535531456 0.6018438077377491
1.95312146290478 12.579332460948647 47.3482624952543 155.33281616719515 0.6164455671800662
1.967778222402386 12.535550671387435 43.50802528014715 163.44440772174474 0.631726075698572
1.9815330735965324 12.489683887671887 40.03433362471277 172.05673136132776 0.6477325600625048
1.9943702179882845 12.441771182410854 36.885074811795654 181.20822240238792 0.664515768666947
2.006228771066267 12.391687868502762 34.03602109599588 190.94044408245875 0.682129196324871
2.0171165170279957 12.339545930444263 31.44778597840268 201.29912624866432 0.70063167844781
2.0270012723840543 12.285307608560146 29.101892618892812 212.33462762073225 0.7200879018309396
2.0358628845768743 12.22898927179237 26.971892271593852 224.10117079788836 0.7405647872406813
2.0436576293338953 12.170538158283614 25.034891423186796 236.66008159879667 0.7621408449914955
2.0503691373470416 12.109980133986493 23.273876274369044 250.0767944662054 0.7848949422391599
2.055986927781706 12.047343187404985 21.67277136012621 264.42533782056614 0.8089193260928997
2.060494033943766 11.982656775217693 20.21611163742869 279.7863835528964 0.8343114119260124
2.0638658872438214 11.915926497087062 18.88805900159057 296.2494779661657 0.8611789460173513
2.0660875931557103 11.84717342171559 17.67912749034902 313.9123134756748 0.8896351788515212
2.067145109999696 11.776435278093162 16.57935766556634 332.8861023081415 0.9198136909797101
