M[M_sun], R[km], Lambda[1], P_c[MeV/fm^3], rho_c[fm^-3]
0.24162668629717493 15.618656898711224 2160425.4255784233 3.5677272577965504 0.1711233750220791
0.25364375531945865 15.277299690585211 1723224.0147766331 3.7848153909264948 0.17388812051422972
0.2660394569336678 14.981279395967535 1383038.016393384 4.011392625351083 0.17666655406474593
0.27881409830188564 14.723532664861494 1116397.3134966232 4.2477151842981025 0.17945736308659357
0.29196757623230707 14.498480738655852 905962.0199306335 4.4944081553846775 0.18226711206247023
0.3055046422289091 14.3012093286066 738704.3410656161 4.7516263234573834 0.18509149119699894
0.3194198050933627 14.128157777997531 605119.8649166719 5.020053337931379 0.1879371492499786
0.33371749747460216 13.975944785467192 497700.0750036523 5.299911346815833 0.1908006719584693
0.34839764477212065 13.842054985713629 411022.6396456551 5.591931190239688 0.19368840100324908
0.36345872947741936 13.724042205666406 340670.719760586 5.896277340720068 0.1965953475609118
0.3789129415423031 13.620026619539502 283316.3191477539 6.213815034037901 0.19952921670401383
0.39474497379342405 13.528468009547275 236409.21848301298 6.544803399177768 0.20248621730802852
0.4109687668045447 13.447921115448375 197880.2952867321 6.889941417284121 0.2054700028791629
0.4275768751659757 13.37709442598038 166091.61548782384 7.24993568141029 0.20848367460931086
0.44457079707023267 13.314945981583364 139817.09307542618 7.62504769629827 0.2115228197793584
0.4619517325805921 13.260587418729301 117990.81120135292 8.016221395180425 0.21459352210498864
0.47971554866868527 13.213176954135383 99818.485541468 8.424164057984893 0.21769746638955145
0.4978716822378638 13.172009571368239 84650.12048964674 8.849320072590281 0.22083217171085368
0.5164094757022032 13.13642740899745 71941.70440712219 9.292555681296749 0.22400094643170804
0.5353272932564357 13.105865531294683 61280.95409581277 9.754758926943609 0.22720675792120418
0.5546330462889608 13.079820249095231 51817.96256956519 10.236739303463816 0.2304509569644259
0.5743148586078642 13.057867888406674 44733.79433226803 10.73897270333632 0.23373030074632625
0.5943699629460167 13.039539882218964 38332.26656743172 11.262694364127894 0.23705085897868844
0.614806930558114 13.024512529317175 32904.60432949465 11.808846248047804 0.24041430417687645
0.6356109538644241 13.012437091666468 28294.202592334706 12.378407243408558 0.2438222690813651
0.6567791849536754 13.003026122579874 24373.00714608082 12.972072934181162 0.24727277908400389
0.6783127393992766 12.995968552127879 21030.246471760907 13.591156900271246 0.2507704725300968
0.7001981540246449 12.991066960251437 18174.277922281894 14.236862949530904 0.2543180577998017
0.7224313869444995 12.987993008938112 15731.594704333529 14.910380617159356 0.2579175192220107
0.7450182273570372 12.986652945300545 13635.826772278999 15.612747195406811 0.26156883062433833
0.7679369924179442 12.986763795237843 11837.73489289573 16.345213527927896 0.2652737348079131
0.7911810999259918 12.988129388943703 10289.955898895136 17.10940275287836 0.269036996354137
0.8147538657248541 12.99066972582733 8957.246657076164 17.9067697142785 0.2728610474441771
0.8386355745819308 12.994132583189268 7808.17860859835 18.73868670021118 0.276747032666596
0.8628163499640483 12.998399481219723 6815.483841267442 19.60648401788679 0.2806953076178522
0.8872896183640538 13.003346965915048 5956.191182982754 20.512253936478494 0.28471229323830766
0.9120498651996926 13.008840483282137 5211.753054407306 21.457790307946066 0.2888010023279365
0.9370698778218827 13.014738116833302 4565.9210560690335 22.444585995426618 0.29296142798228714
0.9623460017882668 13.020934726697552 4005.0563187813964 23.474648570760394 0.2971972281592348
0.9878708778726702 13.027325534859237 3517.041072415677 24.550408474008382 0.3015145714209194
1.0136120156096804 13.03378059028568 3092.2368274693213 25.673818051233994 0.3059151653208553
1.0395745618119203 13.04023743262841 2721.7676592035223 26.846817935500937 0.3104001187253979
1.0657248292597008 13.046562442376624 2398.7317524303576 28.072514228242582 0.31497823947018555
1.0920561927787789 13.052697393841342 2116.124530033648 29.35297273587083 0.3196500490955694
1.1185528600689414 13.058530492703776 1868.9136964349357 30.690926783157764 0.3244200809279578
1.1451827794829286 13.063989637960711 1652.3866565500507 32.089799120989035 0.3292965487760375
1.171945539800795 13.06899585135134 1462.3162575285824 33.551504235356774 0.334276978966748
1.1988004113955084 13.073456315959728 1295.6218776780572 35.08059639334712 0.33937502037582945
1.2257449157580418 13.077329690821994 1149.2386835871093 36.6791136705207 0.3445875266226134
1.2527388679107911 13.080491780628815 1020.3480397443411 38.35208669664697 0.34992880431422113
1.2797800799442698 13.082932036645136 906.87132616668 40.101758986479794 0.3553954615611581
1.3068227585867553 13.084522123996148 806.8944561916242 41.93361468798076 0.3610021346208862
1.3338594326797046 13.08523903896099 718.7324167253486 43.85110234645483 0.36675055997712513
1.360867115029499 13.085033069605817 640.7413576950091 45.858956378678556 0.3726487500439394
1.3877966533215431 13.083779929281313 571.8934469637188 47.96248567263476 0.37870653081294336
1.414652513269598 13.081490199423005 510.8779121690946 50.166416919843435 0.38492940515789803
1.4413761831557492 13.078039404272968 456.95186226501716 52.47602455707321 0.39132463198986633
1.467970058526559 13.073443038203338 409.0914893144848 54.89769545941607 0.3979037553582997
1.4943785860516623 13.067583398463848 366.61087866932417 57.43761750217046 0.4046758329447684
1.5205902091549606 13.06043806035947 328.904905948946 60.10241649133571 0.41165063224380904
1.5465726625171772 13.051954869607545 295.3427316961081 62.899195585039024 0.418838689002484
1.572288554510005 13.042077998642451 265.51280361933436 65.835578489041 0.4262513704304505
1.5977126442041611 13.030754833063046 238.96616799341245 68.91975680941479 0.4339009437389171
1.622799021289813 13.017938919018437 215.27455498190048 72.1605419931193 0.4418006506352505
1.6475518368244575 13.003600803602941 194.13704709521866 75.56742234118212 0.4499647884757465
1.6719005426561466 12.987670219017199 175.26549485720153 79.15036390234697 0.458407705835694
1.6958379116986821 12.970129820365578 158.39616143234633 82.91949279331449 0.4671424071361882
1.7193185311221137 12.950921648503769 143.30611442588113 86.88757263693726 0.4761905647976404
1.742304021815539 12.92998591733939 129.80198644938275 91.06621998906488 0.48556668474106784
1.7647846715763933 12.907343558956654 117.702436045211 95.46943536582994 0.49529234331117256
1.7867128411823716 12.882911950181107 106.84950630362637 100.11097088723945 0.5053854046123498
1.8080513616241711 12.856664321887115 97.10563552031093 105.00730294720464 0.515871388790374
1.8287630975453133 12.828535265078456 88.35105477609258 110.17496673178954 0.5267728247186543
1.8488442983696394 12.798575263394703 80.48058143501963 115.63154091550378 0.5381129084510314
1.8682308101541794 12.76667646892521 73.39389772888504 121.39731914013575 0.549921301749085
1.8869017540234554 12.732831920882345 67.02406401215832 127.49367100916537 0.5622276232581016
1.9048249016842653 12.69702401513029 61.26785401471186 133.9430777695594 0.575061331945371
1.9219694561518141 12.65921538763876 56.085527781032596 140.7711075353706 0.5884583370281464
1.9382845521282124 12.61933414194608 51.4013160700087 148.00548500767337 0.6024570959033874
1.953784099897141 12.577498208309477 47.17187526915286 155.6747694646431 0.6170936029087377
1.9684020965386018 12.533579756606208 43.34731199171664 163.8125256580403 0.6324151994791328
1.9821201313992192 12.487589041807643 39.88691690765363 172.452445880204 0.6484632036550794
1.9949128295773628 12.439520924799243 36.752097008647894 181.63393932603887 0.6652912179462765
2.0067510724973228 12.389370083995868 33.90963212497932 191.39892521172786 0.6829534133496122
2.017601295964408 12.337106912928022 31.333110966452733 201.79341799713845 0.7015089975434913
2.027441385341821 12.282729642792255 28.997337303893502 212.8674185605265 0.7210208578387713
2.0362529388773654 12.2262752863149 26.874197334273987 224.67624297908674 0.7415588131964096
2.0440035163850654 12.167690844168828 24.946882547681387 237.28117683864403 0.7632004499841429
2.0506661777366366 12.106996441272685 23.191584525650978 250.74898215669538 0.786028084155283
2.056242846280063 12.044260383844085 21.597449513700564 265.1526670531384 0.8101296441928376
2.0606935290695985 11.979421897465341 20.14546581621579 280.57412831915286 0.8356054078650271
2.0640044999208897 11.912535131106624 18.824898573609133 297.1028518484359 0.8625616341743472
2.066169730880622 11.843646980297358 17.62180172615139 314.8392517836752 0.8911190247678963
2.067166349255778 11.772766980384146 16.526055632953536 333.89275421251926 0.921403617251888
