M[M_sun], R[km], Lambda[1], P_c[MeV/fm^3], rho_c[fm^-3]
0.24162668629717493 15.618656898711224 2160425.4255784233 3.5677272577965504 0.1711233750220791
0.2536447572990403 15.277249186640727 1723167.8809168492 3.784833883836745 0.1738883510194347
0.2660407668672553 14.98125812873152 1382886.4648363236 4.011431501255622 0.1766670238571093
0.27881709822592116 14.723490949286807 1093904.982937453 4.247775758549093 0.1794580656566216
0.29197254250151194 14.498389684641575 905870.6957775514 4.494492017620343 0.18226804588792778
0.3055090956327448 14.301186836082973 738590.7787896697 4.751736321330992 0.185092679383968
0.3194260293020013 14.128076463183943 605059.3937019503 5.020190281842771 0.18793857009591478
0.33372648066008304 13.975869290539878 497654.86438355624 5.300078842285045 0.19080235835991904
0.3484075920452213 13.841972030959573 410972.30111029197 5.592129655592124 0.19369032121012983
0.36347053657039724 13.723947356985708 340625.20561249 5.896511234942987 0.19659754434495075
0.3789253606697658 13.619962455654667 283257.31683176215 6.214087187761076 0.19953169841827478
0.39475940446897506 13.528406780855176 236394.92313299072 6.545113529966037 0.20248893673607546
0.4109854195416559 13.44781773086352 197835.5145794467 6.890295512429949 0.20547301850201502
0.4275937807447976 13.377019309165393 166070.57130978053 7.2503370639051 0.2084869951438249
0.4445910842874196 13.314877120762898 139785.4951210275 7.625495256882568 0.21152638264938994
0.46197375574802374 13.260525955793263 117967.38996340489 8.01672294068317 0.2145974019649345
0.4797400076608348 13.213112481145558 99808.73898012245 8.424723499624076 0.21770167260859302
0.4978978334090762 13.171963982334775 84630.97595362092 8.849935347716963 0.22083662656565767
0.5164377209122434 13.136373272781807 71926.26480955032 9.293236747373422 0.22400574117934732
0.5353579420257228 13.105813390296994 61265.79078673639 9.755510402062418 0.2272119029176465
0.5546658164981507 13.079800418943256 52296.991966210735 10.23756608634436 0.2304564630158813
0.5743502515166945 13.057831829276466 44721.38371905137 10.739871201658836 0.23373606938387675
0.5944085384365154 13.039501767386032 38320.72942063679 11.263678090564975 0.23705700531926913
0.6148458322091093 13.024488055533732 32894.71293643822 11.809921014351348 0.24042084054920998
0.6356526130090974 13.012418678532379 28286.548007533278 12.379579223926434 0.24382920846497588
0.656824876833402 13.003008237118328 24366.05299825242 12.97333674696925 0.2472800025196498
0.6783579873065047 12.995973409828899 21024.15511383307 13.59253049253658 0.25077812032382285
0.7002476605971185 12.99106130927907 18168.395793022366 14.238353686724727 0.25432614512183366
0.7224850978456324 12.987999157918066 15725.635559460417 14.91199633799684 0.2579260621471291
0.7450732143171286 12.986639180666856 13630.975026147084 15.614480477094485 0.26157769001059455
0.7679964705259041 12.986761041322884 11833.566769054178 16.3470878437972 0.26528307780242694
0.7912419188700658 12.988143537423689 10286.074470198882 17.11142751035103 0.2690468420640862
0.8148183396111469 12.990662564830629 8954.20324769119 17.908954944502494 0.2728714162053385
0.8387015135956163 12.994137571432354 7805.710745638234 18.74102271059645 0.2767577654256321
0.8628838020942238 12.998410947098025 6812.531272171145 19.60900118369779 0.2807066005533528
0.8873681989363098 13.00335870277656 5953.837778452456 20.51496437357758 0.2847241707939358
0.912125792312414 13.008851855095205 5209.703707438539 21.460706961894832 0.2888134905955201
0.9371467216998526 13.014751191969882 4564.072908342518 22.447696716150393 0.2929743481451979
0.9624323447132784 13.020960427923278 4003.5552471925685 23.477992397531896 0.2972108084333016
0.9879542298182071 13.027349435610052 3515.6139336857873 24.55400114695016 0.30152884340499514
1.0136982316794794 13.033808176346005 3091.0531288470443 25.67764566312432 0.3059299368122965
1.0396641775330768 13.040257138989583 2720.6307831259815 26.85092728206005 0.31041564309673003
1.0658170533443465 13.0465901398414 2397.578900266989 28.07692454644099 0.31499455515495484
1.0921503689370535 13.052714836794316 2115.0625578849013 29.35766839417606 0.3196669505823193
1.1186501893432292 13.058548101997255 1867.8457357508062 30.69596384588813 0.3244378494931327
1.1452839777515282 13.064001642702477 1651.5964755618745 32.095161147570224 0.32931497217123207
1.1720484188643623 13.069012798956933 1461.621611711531 33.55725412502689 0.33429635668777474
1.1989059655702399 13.073471167093997 1294.9932129195247 35.08676128604592 0.3393954060046782
1.225852780053782 13.077344277577248 1148.7035654247557 36.685675675448 0.34460869463473237
1.2528499674786917 13.08049584836669 1019.817470851882 38.359080023905925 0.34995084622434686
1.2798939822755238 13.082938452468536 906.433840946145 40.10924788393431 0.35541862970800336
1.3069385655491863 13.084526372456608 806.5108548865443 41.941588820052836 0.36102624163021585
1.333977033272314 13.085242549859043 718.3611609758144 43.85965112134015 0.3667759713571851
1.3609866882646338 13.08503381190485 640.3982094541055 45.86806188300285 0.37267522761362515
1.3879188664886903 13.083770052051182 571.6070279845654 47.97218680079498 0.37873414335527966
1.414769806186005 13.081461799210832 510.65240161818576 50.17682005392734 0.3849585558860502
1.4415008994355007 13.078022156577454 456.7346259982282 52.48711318156488 0.3913550771981719
1.4680962752985043 13.073418615697248 408.87547985974356 54.909518676283064 0.3979355813317465
1.4945060853833587 13.067549100576873 366.4010398149206 57.450228390840415 0.40470913263884584
1.5207190200131604 13.060399034974278 328.74130428295524 60.115872464823106 0.4116855058323254
1.5467028183362226 13.05190789843961 295.1906068529689 62.91355878160823 0.4188752444796774
1.5724190341536648 13.042025040662795 265.37579766984004 65.85091620336297 0.42628972427321893
1.5978323074563967 13.030686477351681 238.8250805627859 68.93614196765638 0.43394122163567755
1.6229305778836265 13.01786257324973 215.16408790748994 72.1780536769504 0.4418429882887156
1.647682888724011 13.003520082193209 194.02884655705193 75.58614636630257 0.45000933248778024
1.6720323015803766 12.987582473376495 175.1687922453765 79.1702956810425 0.45845420644735635
1.6959689698331646 12.970023733592155 158.30995804677804 82.94082680327676 0.4671914326289468
1.7194490104055182 12.950808048685232 143.2287473457922 86.91041870667925 0.47624229990512584
1.7424254569051574 12.929832860057168 129.74383974172883 91.09058762784068 0.4856208937679386
1.76491270594099 12.907206328576416 117.63496553353468 95.49555933085529 0.49534966512363615
1.7868391697342667 12.882767362898646 106.78566588517599 100.13887392585832 0.5054456181591503
1.8081766621966826 12.856501566495457 97.05241383396428 105.03712975931742 0.5159347260884148
1.8288851012666256 12.828360303496863 88.29923027210177 110.20687515046906 0.5268395367342261
1.8489640456255123 12.79838417292755 80.43662356690149 115.66583361608508 0.5381837453369311
1.8683389091689346 12.766439552625288 73.35949752726349 121.43405851880388 0.5499960896605731
1.88701542096288 12.732614148340726 66.98248523340263 127.53298983626465 0.562306420754002
1.9049376400761961 12.696789868419398 61.234417031484064 133.98520397817396 0.5751445021612478
1.9220766352297554 12.65896468422021 56.05362720785082 140.81635433695243 0.5885464950041169
1.938388874633291 12.619069514244933 51.37365159437549 148.05412337929397 0.6025506542311094
1.953883144354654 12.577218151637327 47.148235070354 155.72693681608018 0.6171924652617364
1.9684976053480525 12.533276667283173 43.32571202881496 163.86853814128236 0.6325198312633251
1.982210240049226 12.487269278340536 39.86543266339011 172.51281926837035 0.6485746765152388
1.9949951105673291 12.439183155004853 36.73083024754749 181.69889248960456 0.6654095310343381
2.0068297839106437 12.389014967672344 33.89096752529935 191.46887997535043 0.6830791718671577
2.017674449869791 12.336731015277746 31.317430595751578 201.8688396843673 0.7016428635985864
2.0275087463252923 12.282338818617502 28.981817736928168 212.94863082534866 0.7211629338373023
2.0363140473343857 12.22586142043022 26.8602829303035 224.76399756789152 0.7417104990922991
2.044055097839656 12.167259063126213 24.933995297272425 237.37590129572254 0.7633619638849987
2.050711793512476 12.10654088837196 23.179882720836734 250.8513608891793 0.7862003485669682
2.05628191018833 12.043783907592537 21.586606055146675 265.263670133153 0.8103143597671251
2.06072459420591 11.978925119346986 20.136401924081863 280.69417769140995 0.8358023167767754
2.0640255564324215 11.912021769518834 18.81552752719773 297.2330969315404 0.8627726545464356
2.06618177528407 11.843109122627245 17.612715407022687 314.9807385275035 0.8913455172164647
2.067170278714909 11.772207802194432 16.518506311182037 334.04641585873674 0.9216463135476828
