M[M_sun], R[km], Lambda[1], P_c[MeV/fm^3], rho_c[fm^-3]
0.24162668629717493 15.618656898711224 2160425.4255784233 3.5677272577965504 0.1711233750220791
0.2536411551819169 15.27736239096323 1723133.566872724 3.7847843754618875 0.17388773392142573
0.2660366267640866 14.981295628472823 1383064.223540018 4.011327425064251 0.17666576615775814
0.27880800069989475 14.72366386663487 1116519.6774455844 4.247613593783747 0.17945618478972067
0.2919607084941706 14.49857866571151 906046.9084628237 4.494267509267005 0.1822655459353077
0.3054935546906738 14.30137236115625 738790.1711786641 4.751441846657893 0.18508949849548517
0.31940724556650557 14.128303116172411 605248.5546082178 5.019823672010899 0.18793476637741072
0.33370304522562916 13.976122027029096 497804.7844809429 5.299630445908756 0.19079784375243394
0.3483816312453131 13.842180185716863 411105.8063368123 5.591598353483465 0.19368518071607238
0.3634406452659906 13.724140713919288 340749.13675943215 5.895885091208516 0.19659166347049045
0.37889142221333955 13.620150492424902 283391.70507314673 6.213358625711319 0.1995250548096268
0.3947201426215919 13.528601547025918 236479.09396706472 6.544283306379922 0.20248165679680236
0.4109413002394405 13.4480443679115 197938.4326146024 6.889347600643233 0.2054649456874636
0.4275457583970348 13.377198689222958 166139.66457904744 7.249262569501787 0.2084781061269956
0.4445380245675959 13.315081489941738 139857.91297319313 7.624297149970548 0.21151684494799006
0.46191435816158016 13.260696291750568 118032.22146938127 8.015380324436897 0.21458701574281094
0.4796758848379769 13.213270591889579 99853.13061744686 8.423225905348877 0.21769041279324194
0.4978280865752139 13.17209892284924 84683.97935133286 8.84828829753382 0.22082470121860132
0.5163625997675602 13.136496715931791 71971.47859862284 9.291413588241884 0.2239929060254006
0.5352754468211113 13.105939287907745 61306.1220104376 9.753498773490753 0.22719813024362784
0.554579392268474 13.079881542750202 52329.3440875006 10.235352876809946 0.23044172390375794
0.5742565457205341 13.057924405874658 44755.250072258306 10.737466027679913 0.23372062742190242
0.594309476159935 13.039577735725011 38350.65337645409 11.261044783795576 0.2370405523709208
0.6147406184411985 13.02455463544492 32920.55015814266 11.807044019772698 0.24040334362201232
0.6355401963062773 13.012466886367733 28310.586728764494 12.376442016136991 0.24381063282486445
0.6567029186827631 13.003074092425104 24385.889366634678 12.969953732437862 0.24726066659585877
0.678231717327563 12.996002266694962 21042.331000317754 13.58885363456358 0.25075764856371835
0.7001144980131728 12.991070197083419 18184.3328867125 14.234363272283245 0.2543044969287364
0.7223436867769393 12.988009092754305 15739.508496560806 14.907671387531188 0.2579031945037148
0.7449252633606291 12.986651091194208 13643.712677617312 15.609840859153 0.26155397536125785
0.7678409536536726 12.98675560131816 11844.01468490658 16.342070732354447 0.2652580687602198
0.791080393209778 12.98812504934336 10296.380124440328 17.106007727769263 0.26902048749668345
0.8146468174957873 12.990653919895301 8962.99414762261 17.903105643989324 0.2728436616926485
0.8385238910735 12.994117479017222 7812.904979384604 18.73476983521862 0.27672903669859555
0.8627008729363743 12.998377561261716 6819.844860236208 19.602263436709304 0.2806763725318901
0.8871701080440847 13.003314854713276 5960.313752971106 20.507709329316672 0.2846923780650721
0.911924170490202 13.008808468875017 5215.373576498114 21.452899974391684 0.2887800633358336
0.9369383326084395 13.014697293371098 4568.940850032092 22.439370304939914 0.2929397649733692
0.9622111156758624 13.020894956589336 4008.029233768341 23.469042080321163 0.29717445853571045
0.9877312765210114 13.027289933890737 3519.5335971092313 24.544384799473853 0.3014906422215663
1.0134669978053932 13.033749015699268 3094.5447055840195 25.667400506909512 0.3058903987813579
1.0394248091812965 13.040206049110354 2723.8994035307633 26.839928078617856 0.31037409008674705
1.0655734980707534 13.046537726673716 2400.2789790678985 28.065119814061294 0.3149508843167913
1.0918958946568849 13.052660174434356 2117.618882444854 29.34509996826278 0.31962171196608435
1.1183889396304258 13.058502299556295 1870.316472896956 30.682481685882617 0.3243902903000911
1.1450142616500647 13.06395122721526 1653.5903034328678 32.080809253391095 0.3292656604764373
1.1717717813445427 13.068972493186656 1463.4767912924472 33.54186416685364 0.33424449094195985
1.198622072056139 13.07343064764524 1296.6640960866182 35.07026063468465 0.3393408428239632
1.225563006352789 13.077299074798248 1150.1327263074697 36.66811221081087 0.3445520376165789
1.252553655864631 13.080475155083487 1021.1638103019886 38.3402929831632 0.3498914444153436
1.2795908650437995 13.082919668000887 907.5976278866762 40.08920375823226 0.355356619879391
1.306630446279951 13.084515863333682 807.565760626138 41.92024605708707 0.36096171922435594
1.333661735925961 13.085235057190488 719.2884709657325 43.836770459650374 0.36670795819763624
1.3606658074198257 13.08503740956892 641.2756844295434 45.843691260807354 0.3726043611547794
1.3875935392477141 13.083791375950147 572.3976410994526 47.94622213547272 0.3786602395361962
1.4144454069599426 13.081511960797439 511.3448411477509 50.14897666785315 0.38488053564986574
1.441173798657116 13.078088139096915 457.3539472877586 52.45743527093395 0.39127359277493157
1.4677576760254327 13.07348493488821 409.45204026929116 54.87787484578984 0.39785040183107756
1.4941645252096176 13.067631809912926 366.92100801436806 57.416476602734164 0.40462000932264514
1.5203740990218324 13.060501647852332 329.1928744614959 60.07985908613451 0.41159217064920794
1.5463552462086192 13.052032963184752 295.60957375198177 62.87511753631456 0.4187774084541905
1.5720699365301127 13.04216763358758 265.7572425100632 65.80986701890579 0.42618707573423903
1.5974924524098606 13.030859118667735 239.1841778876905 68.89228970394039 0.4338334242665815
1.6225796589954813 13.018059441636364 215.4789316742999 72.13118672448776 0.44172967897982973
1.647330577697002 13.003737589968162 194.31008619125734 75.53603509851959 0.4498901189692771
1.671679874975536 12.987828466882133 175.4301825847096 79.11695236794344 0.4583297571081834
1.6956194520894694 12.970301684038368 158.54434564695254 82.88373106939024 0.4670602267987653
1.719082848326355 12.951075281690125 143.4442300589283 86.84927667968068 0.4761038432964237
1.7420881421346608 12.93019986289429 129.931866893826 91.02537385626495 0.485475817130509
1.7645741455677477 12.90758224183318 117.80735016190484 95.42564567939053 0.49519625896136266
1.786499757966672 12.88316302276514 106.9420466353697 100.06419952155139 0.5052844740343133
1.8078415725113333 12.85693432604442 97.19445459658108 104.9573074307104 0.5157652232063037
1.8285657898016712 12.828851592076226 88.4324931012096 110.12132841233718 0.5266604297455507
1.8486409786850166 12.798891619274569 80.55653981521908 115.57406099505059 0.5379941747701708
1.8680330415417168 12.767016241518121 73.46610607213951 121.33573888052943 0.5497959469071741
1.8867094254398513 12.733200536458227 67.08536031698566 127.42764477050909 0.5620951091239511
1.9046391270422691 12.697414360417369 61.32876673668597 133.8724699643759 0.5749219302144098
1.9217730307061103 12.659585469892761 56.13772549498174 140.6952702166647 0.5883105770918327
1.938117255782147 12.619810002252473 51.45095539061096 147.92396415964495 0.6023002864962896
1.9536134249775623 12.577969064285835 47.21849105100295 155.5873348401858 0.6169279055430618
1.9682437649042641 12.534083267641346 43.387941975126616 163.71847386600245 0.6322392464734833
1.9819722850214399 12.488127829490129 39.923049507272076 172.35126020539877 0.6482763753699643
1.9947711266364834 12.44008810455611 36.78676400810473 181.52507936182042 0.6650929280120238
2.006614742386425 12.38995240425176 33.9435915203426 191.28168425510853 0.6827426478758039
2.017479933726086 12.337734867060307 31.363365261741578 201.66701648624544 0.7012846473301371
2.027330474799673 12.28339457466604 29.0236731679981 212.7313142438585 0.7207827514796233
2.0361551423845894 12.226968007156708 26.898770395281836 224.52917652921587 0.7413046053366522
2.0439150920043727 12.16841968017786 24.969029970193727 237.1224319865518 0.7629297754287752
2.05059138351759 12.107757580784881 23.212731248971426 250.57707716450048 0.7857383057851338
2.0561743463623223 12.045033137927486 21.616069692985615 264.9666474156616 0.8098200967085631
2.0606446327722923 11.980252457869943 20.163137778887208 280.3728308659854 0.8352750365125571
2.063975797696895 11.913415045343847 18.841289783785722 296.88459335279066 0.8622080163036012
2.0661489837492133 11.844546702122383 17.636765097134194 314.60215921617004 0.8907394861998396
2.0671617989327196 11.773705884712276 16.54026092739614 333.6352643425451 0.9209969325704095
