M[M_sun], R[km], Lambda[1], P_c[MeV/fm^3], rho_c[fm^-3]
0.24162668629717493 15.618656898711224 2160425.4255784233 3.5677272577965504 0.1711233750220791
0.25363967568415763 15.277423868336868 1723349.607127242 3.7847577231295046 0.1738874017129601
0.26603261354251395 14.981418595938777 1383158.4637361383 4.011271397500114 0.17666508909771075
0.2788021601720599 14.723831283283566 1116661.8434445972 4.24752629647408 0.17945517227248278
0.29195458426242815 14.4986386387675 906124.6870794068 4.494146652483945 0.18226420016697892
0.3054848309164493 14.30151766122127 738913.1324142993 4.75128332793822 0.18508778619077518
0.31939697718952104 14.128425429138192 605263.8148611739 5.019626324742324 0.1879327188233302
0.33369092755757473 13.976221571254781 497844.82699189655 5.299389075882913 0.190795413556779
0.3483674566846586 13.842297354886474 411178.69250400737 5.591312359166655 0.1936824136423829
0.3634242126245302 13.724271262468802 340807.2285451172 5.895548049020723 0.19658849789893698
0.378871482310445 13.620295088767373 283453.0586450623 6.212966458594046 0.19952147871771722
0.39469846100661277 13.528735321261616 236541.04345698294 6.543836422604888 0.20247773822980572
0.41091742909422413 13.448130483365063 197985.62927091395 6.888837375381036 0.205460600395023
0.4275194521736792 13.377324200264333 166199.86332120845 7.248684216839776 0.2084733215636419
0.44450838520474534 13.315156311701982 139899.47304836387 7.623652269429571 0.21151171128422705
0.46188246787073056 13.260798499740682 118067.17861649586 8.014657670731788 0.2145814254321615
0.4796408813540478 13.213361632967416 99888.49461838439 8.422419845723752 0.21768435235171169
0.4977900581262503 13.172178820182477 84709.027873364 8.847401804887173 0.22081828263307043
0.5163217448567728 13.136569720985975 71998.68578787649 9.290432320289836 0.22398599783784323
0.5352322270290539 13.105998761050543 61328.23115213161 9.752416079859069 0.2271907175499222
0.5545318501481761 13.079962304485626 52352.248320455416 10.23416170314774 0.23043379115184598
0.5742042027314862 13.057982073478767 44370.13379731753 10.736171550048335 0.2337123164745287
0.5942554216134096 13.03965565836721 38364.881564035175 11.259627540799922 0.2370316974110371
0.6146835443490983 13.024591474350212 32935.24836821932 11.80549564273018 0.24039392690618377
0.6354769225168603 13.012514530722166 28323.79936081116 12.374753614422103 0.24380063567302618
0.6566399012828167 13.003080854114614 24397.567272482727 12.9681330592133 0.24725026037430936
0.6781637007178557 12.996022853462069 21051.000790181042 13.586874843956428 0.25074663118776747
0.7000431199433079 12.991093997404484 18192.897507287238 14.232215759151384 0.25429284656518664
0.7222670838797216 12.988017359893577 15747.476134882589 14.905343865532707 0.25789088801754273
0.744846263315423 12.986648363539146 13650.542570757898 15.607344019805558 0.2615412131747327
0.7677571544698907 12.986754859244604 11850.171290139131 16.339370774658622 0.2652446101482789
0.7909927438056679 12.988111310068389 10301.956180958507 17.103091107485646 0.2690063049598947
0.8145574162790539 12.990634962703538 8968.417629473051 17.89995791917389 0.2728287259634724
0.8384304785741091 12.994095854545956 7817.254490719733 18.73140496479937 0.2767135768600498
0.8626009629877324 12.998357758233498 6823.592071523819 19.598637685172015 0.28066010607138414
0.8870660892388988 13.003299345669411 5963.5736762766255 20.503805254339394 0.28467526980318525
0.9118173181097571 13.008787978292087 5218.340061432322 21.448698939594642 0.28876207572139767
0.936827074014635 13.014675038748106 4571.811226711664 22.43488980619341 0.29292115553238535
0.9620948912777603 13.020868849733715 4010.301690534827 23.464225912747587 0.29715489864817135
0.9876093173549109 13.027264737014695 3521.6670276184136 24.53921030502444 0.30147008641156664
1.0133468131595722 13.033732727798832 3096.759563381107 25.66188770986795 0.3058691238358697
1.0392959230889103 13.040167825160703 2725.6101622893584 26.83400961212474 0.31035173118607157
1.0654404825708257 13.046510613986932 2401.865985855127 28.058767988073832 0.31492738615047805
1.0917592076686278 13.052629273007708 2118.9757054944057 29.3383372877681 0.3195973704686105
1.1182477726136604 13.058469915157557 1871.5159585251179 30.67522744713717 0.3243647005028536
1.14486973059007 13.06393058051723 1654.736739222893 32.0730552661973 0.32923892191465737
1.1716231479957875 13.06894245762195 1464.387889011661 33.53358361047062 0.334216584613188
1.1984696608557666 13.073404029149849 1297.550718903426 35.061382589167465 0.3393114855342814
1.2254066005303224 13.077281155824268 1150.9032533622067 36.65866242999331 0.34452155408645607
1.2523944917612198 13.080451193833317 1021.9974969908117 38.33016279536265 0.3498593542011494
1.2794290332223484 13.082898886780972 908.2471099117726 40.078419560420954 0.3553232571741305
1.306463658802943 13.08450670636505 808.1493892396727 41.90876329371975 0.3609270050910655
1.3334927826128287 13.085228324964786 719.859882369839 43.82446045632671 0.3666713665014934
1.3604940953991327 13.085041899143976 641.7994182775685 45.83057979993799 0.3725662348076287
1.387418638659761 13.083805156953597 572.8107265617379 47.932253242944505 0.3786204795588043
1.4142675884848679 13.081531900283357 511.7221761453292 50.133997253703434 0.3848385616806527
1.4409938823648258 13.07811566783477 457.6826167231095 52.44146910343542 0.3912297556609866
1.4675755122932843 13.07352190231464 409.76017094606783 54.86085126655237 0.3978045774173942
1.4939798649847658 13.06767999884786 367.20837705307605 57.39831923181526 0.40457206385958744
1.5201880723064005 13.060560540855482 329.44611479507756 60.060485309959255 0.41154196000491855
1.5461679089763678 13.052099001982011 295.83942933818145 62.8544379445193 0.41872477724897106
1.5718822754535406 13.042248180907437 265.983102103153 65.78778478441735 0.42613185638852913
1.597298074075185 13.03093666027958 239.36205568838596 68.86869989991474 0.4337754359531862
1.6223899594505855 13.018161936362105 215.63824608158257 72.10597557094646 0.4416687264699293
1.6471421892097493 13.00385437695802 194.46938311152945 75.50907913063408 0.4498259913604885
1.6714955072995368 12.98795814352977 175.56930420923726 79.08821540770823 0.4582626352551288
1.69543090972783 12.970448303940616 158.6792593286025 82.85301887148674 0.4669896502574315
1.7188954327066783 12.95123297048221 143.5646947094488 86.81638847884153 0.4760293677028257
1.7419100968975842 12.930395009793699 130.0389394929223 90.99029595923356 0.485397781721324
1.7643895764914268 12.90777939821648 117.90913421637987 95.38804039292168 0.4951137445659976
1.786317946895773 12.883378513822985 107.03685495028586 100.02403410858068 0.5051977988156496
1.8076601496534765 12.857160366969124 97.27744730753251 104.91437374211276 0.5156740534285741
1.8283894101385672 12.829107811931753 88.50544240247137 110.0752178948546 0.526563728685029
1.8484676869731338 12.799161201277913 80.62384921963583 115.5247013592873 0.5378922147953847
1.8678638177283033 12.76731058014779 73.52552127664934 121.28285884276453 0.5496883025286567
1.8865437157705613 12.73351650498998 67.1387376877221 127.37094764121133 0.5619813184378448
1.9044782013893113 12.697750580257697 61.37878871875205 133.81183934003823 0.5748022265363255
1.9216331950130676 12.659995453459617 56.18420631462763 140.63014994845196 0.5881836980453677
1.9379668638702137 12.62019453923295 51.49198689704692 147.8539645553798 0.6021656387747881
1.9534660839164728 12.57835909502113 47.256828016903405 155.51225825325437 0.6167856278955545
1.9681061085583194 12.534517121583324 43.42308058840007 163.63762988285598 0.632087871448339
1.9818417618851514 12.488584706274372 39.95511379803903 172.26437875017618 0.6481159582623176
1.9946480580537609 12.440568466378366 36.8166072868545 181.43160990586136 0.664922672101967
2.006500554174213 12.39046364896054 33.969846262400225 191.1810202734468 0.6825616830286877
2.017375636517521 12.33827263094585 31.388249906780924 201.55848893994892 0.7010920216408204
2.0272338620047448 12.283959414692147 29.047987677306754 212.61445772920936 0.7205783179985479
2.0360687937750153 12.227564680503887 26.920103287732008 224.40291034276058 0.7410863512273926
2.04383914337152 12.16904636713691 24.987974279411187 236.98614140959302 0.7626973874751948
2.0505263353157774 12.108415967409632 23.23142750288617 250.42948272556646 0.7854894949231759
2.056120843681847 12.045715730246497 21.632597095201234 264.8069459333877 0.8095543441635988
2.060602577875735 11.98096792337783 20.17920394854471 280.1998088811219 0.8349907343512103
2.0639444510651166 11.914160551279364 18.854913368065 296.69722118889354 0.8619044398245347
2.0661304360604666 11.845322827000423 17.648967528877694 314.3986224049783 0.8904136637977312
2.0671562524941507 11.774511298426747 16.552066018549084 333.4142215212008 0.9206478130908721
