M[M_sun], R[km], Lambda[1], P_c[MeV/fm^3], rho_c[fm^-3]
0.24162668629717493 15.618656898711224 2160425.4255784233 3.5677272577965504 0.1711233750220791
0.2536456352568172 15.277258005037998 1723165.5334232266 3.7848557067547426 0.17388862303157981
0.2660434293073485 14.981196860770389 1382896.5326651959 4.011477377868691 0.17666757824890372
0.27882155852464185 14.723372958970694 1116310.0763594087 4.2478472414326855 0.17945889475034887
0.29197815086618184 14.498259785359224 905752.2400224447 4.494590983054939 0.1822691478910107
0.30551553873297527 14.301084223607655 738540.0449414706 4.751866130246815 0.18509408156800292
0.3194350151550551 14.127965713353445 605016.0501594179 5.020351890984179 0.1879402468531323
0.3337359980675454 13.975797439892293 497579.20913819235 5.300276507073864 0.19080434851635725
0.3484193306312058 13.841872912127327 410910.81621980586 5.592363870101814 0.19369258729994127
0.36348593668672957 13.723802171643017 340554.3589594272 5.896787261949718 0.1966001368490115
0.37894025440704493 13.619873083286848 283221.9390831363 6.214408368374404 0.19953462719874168
0.3947777098909234 13.528307268329536 236334.05352989538 6.5454795312689775 0.2024921460730587
0.4110049108090708 13.447728198556458 197814.1151153981 6.890713401128067 0.20547657741752837
0.42761625195483743 13.376930804526728 166027.181155077 7.250810762358965 0.2084909139297352
0.44461472773796834 13.314803370873282 139754.36858527965 7.626023456346357 0.21153058745675285
0.4619970861829322 13.26045687812523 117927.06762749875 8.0173148556256 0.21460198090555685
0.4797686647969891 13.213042391234577 99770.84737334648 8.425383746837497 0.21770663674462928
0.4979285840828947 13.17189197863768 84608.52428996796 8.850661493184962 0.22084188416910408
0.5164716200209964 13.13631286995508 71909.74629090984 9.294040544242815 0.22401139995941874
0.5353929839262496 13.10576801518065 61246.41790436156 9.756397301638163 0.22721797510160535
0.5547063737436108 13.079720044260853 52281.14488548052 10.238533662663269 0.23046285581789158
0.5743909114550806 13.05777572423822 44707.4724462563 10.740931632291728 0.2337428776770202
0.5944523744860243 13.03946225372625 38307.16060818704 11.264839116937337 0.23706425943305393
0.6148931760869542 13.024460397673835 32884.931905510086 11.811189496991068 0.24042855504007604
0.6357024565412461 13.012414903105997 28275.654427992406 12.380962451446349 0.24383739865776088
0.6568768301158588 13.002987105411941 24356.447680303754 12.974828367255208 0.24728852800953663
0.6784132458996966 12.99595926786693 21015.646865112874 13.594151690696606 0.25078714672083285
0.7003070263168123 12.99103542306358 18161.09587255279 14.240113157611162 0.2543356903372636
0.7225461325144864 12.987998152381804 15719.422031283237 14.913903335216656 0.2579361451602783
0.7451383863737653 12.986651188623375 13625.473556733625 15.616526239278855 0.26158814658987334
0.7680633384699345 12.986768200349053 11828.263195412488 16.349300080109252 0.2652941052455945
0.7913134932296215 12.988150429396883 10282.579365889263 17.113817326490494 0.2690584629307128
0.8148920051177285 12.990680450201847 8950.159562196273 17.911534182585875 0.2728836545056198
0.8387813417940926 12.994149482300012 7802.136832421436 18.743779929546754 0.27677043342008534
0.8629663748924935 12.99841863323663 6809.407848216477 19.611972241347605 0.2807199298152795
0.887452272180078 13.003392195204588 5951.153617920098 20.518163573431256 0.28473819018373836
0.9122136896671786 13.008872692638086 5207.4817664496595 21.464149587090088 0.2888282309196667
0.9372380057733858 13.014776431005977 4562.1638130150295 22.451368424118435 0.29298959832974364
0.962526664534755 13.020987043234207 4001.4926326947357 23.481939275591234 0.29722683787783233
0.9880519088459117 13.027367913057207 3514.017814116002 24.55824177783542 0.3015456894183803
1.013801530531272 13.033826950035257 3089.772933822834 25.68216362947196 0.30594737251454324
1.0397697159556911 13.040283989684285 2719.285751839528 26.855777829501918 0.3104339675915296
1.0659248998927051 13.046618414053496 2396.4654917177063 28.082130386618086 0.3150138138214427
1.0922630579607515 13.052738917609021 2113.9283012943015 29.36321107356033 0.3196869008248802
1.1187658661530058 13.058575961319034 1866.8602050019535 30.70190955423586 0.32445882336460163
1.1454024952942075 13.064032908782627 1650.6340761974743 32.101490475816604 0.3293367191196729
1.1721699608889646 13.069041754329826 1460.8940618681474 33.564041333695435 0.33431923028077826
1.1990309608901797 13.07349033396487 1294.4163000702188 35.094038418555435 0.3394194695090521
1.2259813091508067 13.07735356979969 1148.0429175789936 36.69342160994193 0.34463368182036486
1.2529807672140187 13.08051117812526 1019.2756228563474 38.367326203296905 0.34997681265271635
1.2800275295968522 13.082948445648958 905.9037913351463 40.118088059272075 0.35544597825718666
1.3070817097470733 13.084555369284551 806.026097900024 41.951001841376 0.3610546986197422
1.3341160695743421 13.085236981332846 717.9029531075876 43.86974255275979 0.3668059683102683
1.3611273964455197 13.08502833144265 640.0377155548015 45.87881057480345 0.37270648334928186
1.3880684142712887 13.083775273816483 571.2353603674221 47.9836386761118 0.37876673908917713
1.414915020074839 13.081446083239246 510.33986514314853 50.189100721902456 0.38499296767107405
1.4416481767822917 13.077998687323726 456.44807395786603 52.50020314220133 0.39139101732569515
1.468244905867614 13.073391265289677 408.6164755024212 54.92347590670616 0.3979731516858923
1.4946572299835745 13.067511768280047 366.17846416669363 57.4651155651976 0.40474844298126067
1.5208700667416992 13.060355468644104 328.5291674252027 60.131757374901454 0.41172667444923816
1.5468554251284474 13.051855243597092 295.0111210082946 62.93051479942962 0.418918398893096
1.5725735165897077 13.041959088437645 265.20154843464604 65.86902279043234 0.42633500202314656
1.597987286469341 13.03061118066548 238.6636720775439 68.95548523610867 0.43398877114104356
1.6230963431345484 13.017790754939991 215.00743030724934 72.19872700848417 0.44189296979562775
1.647838773276158 13.003422478583165 193.89285733438433 75.60825109552098 0.45006191911474597
1.672186470231289 12.987474237489485 175.06213145531856 79.19382638723845 0.4585091033157027
1.696123404096562 12.969908487579849 158.20098684462627 82.96601313921944 0.46724931075558856
1.719603008099117 12.950675327565229 143.1321485282594 86.93739036684728 0.47630337744509715
1.7425873673178691 12.929724971502248 129.6456440239542 91.11935583741756 0.48568489244504987
1.7650634947113766 12.907047329267098 117.55197948863815 95.52640131807105 0.4954173393302686
1.7869737765321425 12.88255886275698 106.7155433024801 100.17181654861321 0.5055167069098802
1.8083233327545207 12.856311754208278 96.98721893301216 105.07234389541563 0.5160095033802311
1.8290354297980058 12.82816440349251 88.23977384932199 110.24454718935628 0.5269182989464845
1.8355710018385096 12.804336000702301 84.67215566036208 117.95748590202159 2.508816233366337
