M[M_sun], R[km], Lambda[1], P_c[MeV/fm^3], rho_c[fm^-3]
0.24162668629717493 15.618656898711224 2160425.4255784233 3.5677272577965504 0.1711233750220791
0.2536436477998594 15.277302911478085 1723212.0015848072 3.784813143161898 0.17388809249692838
0.26603859614172826 14.981298694483264 1383027.230775926 4.011387900105489 0.17666649696294157
0.27881387504677513 14.7235347619172 1116509.2989506465 4.24770782171346 0.17945727769170688
0.29196731612481336 14.498470292849 905942.4621955313 4.494397962265689 0.1822669985597246
0.3055036078043191 14.301228232195442 738722.4634051347 4.751612953705857 0.18509134677816588
0.319418987747254 14.128143684732109 605155.2454857602 5.020036693067394 0.1879369765530904
0.33371602525833105 13.975972629096994 497686.34427415044 5.299890988632764 0.19080046698534614
0.34839643605507953 13.842065190456832 411028.88301877223 5.591907067913475 0.19368816761310714
0.3634579253340321 13.72406795625745 340673.6792349579 5.896248912318197 0.19659508055534533
0.37891149891554093 13.620032136164024 283308.4207909055 6.213781955545546 0.19952891506799264
0.3947439229214253 13.5284699616066 236412.94729779457 6.544765704944093 0.2024858867805216
0.41096596110879463 13.447936564675198 197879.60879235974 6.88989837963756 0.20546963635250473
0.4275748559223602 13.377080153135479 166095.81700770138 7.249886896502937 0.20848327102427483
0.44456843927621686 13.314956141842444 139817.67593440806 7.624993298971368 0.2115223867416589
0.4619499293866219 13.260587144833032 117996.17590648429 8.016160436633434 0.21459305054134478
0.47971271281368 13.21317795236618 99825.20871534964 8.424096062887541 0.21769695516147475
0.49786942313684557 13.172025827498258 84652.68288679178 8.849245291654908 0.22083163026493013
0.516405929032377 13.13642891724927 71946.84421696019 9.29247290436035 0.22400036367691525
0.5353242360770468 13.105858289029689 61283.592003065554 9.75466759277589 0.227206132599146
0.5546274302143844 13.079856280819879 52304.71881215855 10.236638816732606 0.23045028776199605
0.5743106657316936 13.057869508019108 44735.4474943238 10.738863500658136 0.23372959963130555
0.5943661828255596 13.039540643397395 38332.60503127396 11.262574803290425 0.23705011196041234
0.6148023148402354 13.024514916518564 32906.546143580556 11.808715622767455 0.24041350975722847
0.6356037003730441 13.012435144191725 28297.839687909436 12.378264803339576 0.24382142568314719
0.6567741003287386 13.003026294968388 24374.428434755868 12.971919333429257 0.24727190116509296
0.6783050459078138 12.995981665072803 21030.84300529371 13.590989957726842 0.25076954303873616
0.7001923485461765 12.991069436351053 18175.60120731146 14.23668177010745 0.25431707489258704
0.7224253466229924 12.98800608982182 15732.21700199165 14.910184248260629 0.25791648094562136
0.7450116431675637 12.986654585141233 13636.599605386442 15.612536539150101 0.2615677538892879
0.7679309267285489 12.986756730057454 11837.382766832014 16.344985731668427 0.2652725993006929
0.7911737109248962 12.988129560802436 10290.6222729619 17.109156673396015 0.2690357997529439
0.8147483352967334 12.99065640742872 8958.145672470491 17.906504132560766 0.27285978727791643
0.8386285543544436 12.994117698299775 7808.6929529411545 18.73840279420006 0.2767457282653718
0.8628079078933525 12.998396791954654 6815.73312553639 19.60617809623278 0.28069393514032537
0.8872817560137294 13.003339322571675 5956.410396859145 20.51192452684539 0.28471084971421967
0.9120408253302985 13.008842589190621 5212.164474549166 21.45743583717791 0.28879948458675736
0.9370594851643596 13.014741603805472 4566.3162035488585 22.444207940087402 0.2929598577556401
0.9623371827103049 13.020924772244959 4005.3004914222574 23.47424218669687 0.29719557771280436
0.987860498745859 13.027320746241038 3517.2732512443195 24.549971848489452 0.3015128369150086
1.0136011367346518 13.033783330903209 3092.477871731843 25.673352874334622 0.3059133701136126
1.0395643085675108 13.04023913297705 2722.002875845944 26.84631852056571 0.31039823202570205
1.0657140745761322 13.046556046123957 2398.8360141546 28.07197823763404 0.314976256607858
1.0920436149898418 13.0526873308086 2116.1459753080835 29.352402069177433 0.3196479950458643
1.1185406989381912 13.05853449763511 1868.9661784095426 30.690314627496438 0.3244179215091958
1.1451703515615959 13.063985998992099 1652.451473454745 32.08914747424211 0.32929430978199964
1.1719323427528225 13.069001224555029 1462.511101939379 33.55080545414442 0.334274624002015
1.1987871422122198 13.073453074151514 1295.7002230801481 35.07984717974976 0.33937254292957525
1.2257312957558282 13.077328615736059 1149.3214037323114 36.67831619861647 0.3445849541016964
1.252725723316972 13.080493945821546 1020.3916288855613 38.35123179157057 0.3499260961623529
1.2797660824783232 13.082936283911952 906.8886428960584 40.10084887670937 0.35539264598557646
1.306809425293589 13.08451958255515 806.9356736840962 41.9326456116907 0.360999204956447
1.3338445770130436 13.085237037373762 718.7745319733536 43.85006343929266 0.3667474718077559
1.360852825214909 13.0850368589961 640.770331331809 45.85784981740146 0.37264553231406056
1.3877828170972644 13.083778226288853 571.9555716546032 47.96130673105765 0.3787031751646443
1.4146378983983836 13.081490521209432 510.93293223033095 50.16515267125829 0.3849258625940394
1.4413613791060513 13.078041183990907 456.9904185876397 52.47467700833913 0.39132093212592545
1.4679540455767777 13.07344764289624 409.1116719238954 54.89625864408688 0.39789988770983914
1.4943631472719985 13.06758566543981 366.62001461790464 57.4360849705271 0.4046717862168792
1.5205741255606542 13.060443959407468 328.91975997091913 60.10078126711923 0.41164639426455685
1.546556926664587 13.051961129288687 295.3593270097098 62.897450117866775 0.4188342466497598
1.5722737393937831 13.04208541533806 265.5395450627992 65.8337146020242 0.42624670955151645
1.5976967849190506 13.030763047100793 238.98459845317515 68.91776564144011 0.4338960490618603
1.6227847393633366 13.017945526995435 215.2959292042784 72.15841393518691 0.4417955056714558
1.6475352701915462 13.003614426522459 194.14071549833454 75.56514696612116 0.44995937541239905
1.6718844922163487 12.987681945516137 175.27688410437622 79.14794176741714 0.4584020550226138
1.695822256196992 12.97014218904047 158.40688026129686 82.91690026850438 0.4671364495217252
1.7192875002154229 12.95090153047842 143.32333357019337 86.88479637760433 0.4761842779361969
1.7422885003289699 12.930002252713662 129.8109899620464 91.06325883957525 0.48556009727341337
1.764769142604423 12.907359819220485 117.70777859316144 95.46626080256969 0.4952853776105341
1.7866969532046024 12.88293287436433 106.85067317915838 100.10758014609412 0.5053780875400614
1.8080344140471658 12.856683986030195 97.10891397679018 105.00367844673617 0.5158636921560319
1.8287479335809522 12.828556035020494 88.35194263416294 110.17108929497697 0.5267647180297075
1.84882836245679 12.798598536342151 80.48497609432606 115.6273737675153 0.5381043005612595
1.868216698821674 12.766698288176801 73.40168605379634 121.3928546995467 0.5499122137840807
1.886887821049644 12.732858232162453 67.02815370955678 127.48888421285584 0.5622180161961029
1.9048128361094343 12.697051311711398 61.27407421251815 133.93795878654714 0.5750512254834746
1.9219566687436025 12.659244916136156 56.090556904932185 140.76560938012864 0.5884476245308924
1.938271845943868 12.619366456756726 51.405672142273396 147.99957475745808 0.6024457272430449
1.953773003646942 12.577533569088393 47.17451881585708 155.66843042404534 0.617081589792258
1.96839066284046 12.533616977947833 43.350408618330356 163.8057194159514 0.6324024853623469
1.9821098694256054 12.487627352309334 39.890915695830536 172.44510977398969 0.6484496583370679
1.9949022311555493 12.439562698445704 36.755304868353264 181.62604676369082 0.665276841534523
2.006741956533673 12.389412634522005 33.91133964575915 191.39042494471602 0.6829381323176597
2.017592055962457 12.337152373764974 31.336176982176795 201.78425349265714 0.7014927314520407
2.0274323592012236 12.282778787296904 28.998727213197565 212.85755049648338 0.7210035942511155
2.036247331175301 12.226324640876213 26.877105513477066 224.66558002725463 0.7415403820303189
2.0439970598282295 12.167742680450877 24.94850721677255 237.2696670560981 0.7631808247475954
2.0506611895714 12.107050689238044 23.193814947235836 250.73652669828215 0.7860071016572922
2.0562385711633686 12.044318590014994 21.59896594797294 265.1391794662169 0.810107200064588
2.0606914563506127 11.97948152112611 20.147084229561973 280.5595416425324 0.8355814823203503
2.0640019339638145 11.912599189802675 18.826087533265127 297.08702644751924 0.8625359941892492
2.066168320053703 11.843712032600472 17.623186984091287 314.82206059378706 0.8910915050541323
2.0671644070765294 11.77283403752585 16.526633401342753 333.8740838601203 0.9213741289216512
