M[M_sun], R[km], Lambda[1], P_c[MeV/fm^3], rho_c[fm^-3]
0.24162668629717493 15.618656898711224 2160425.4255784233 3.5677272577965504 0.1711233750220791
0.25364431352170874 15.27728736650181 1723269.0996631817 3.7848257275442303 0.17388824935518324
0.26604062143462304 14.981259078539344 1382994.2584820092 4.011414355016365 0.1766668166549269
0.2788157311894976 14.72349173303424 1116391.1375326635 4.247749042192092 0.1794577557871411
0.2919708450873127 14.498390209614477 905788.1191684273 4.494455029998112 0.18226763402216986
0.30550630269234447 14.301208385012753 738608.0724929277 4.751687806438818 0.18509215533054046
0.3194232072404028 14.128118335862819 605079.5335929557 5.02012988221417 0.18793794342645592
0.33372108711749515 13.975940071933515 497670.0035758617 5.300004967643448 0.19080161456485836
0.34840320687743354 13.842009035485813 410995.33975890354 5.592042121394954 0.19368947429269237
0.3634667244230931 13.723954122594412 340629.0138684229 5.896408074472688 0.1965965754399826
0.37891963697723013 13.6199890543544 283290.05682249315 6.21396715249547 0.19953060384118432
0.3947516771531367 13.528453236261262 236404.32316696947 6.544976744437021 0.2024877373117742
0.41097809169230753 13.447876137452107 197858.18241236135 6.890139335820871 0.20547168843647515
0.4275861845630174 13.37704435720993 166072.03438671754 7.250160030515782 0.20848553059196484
0.4445824245613661 13.314914516310234 139790.5410727484 7.625297855926918 0.21152481121085456
0.46196395393956036 13.260582318225474 117976.34138359601 8.016501728782577 0.21459569071204126
0.4797292893942749 13.213148093174416 99808.81183776211 8.42447675161403 0.2176998174085049
0.4978865323250077 13.171980601739277 84639.0879342565 8.849663973323114 0.22083466169909685
0.5164250497641084 13.136394827584052 71931.69140198786 9.292936354606057 0.22400362639553778
0.535344551822363 13.105838203482815 61279.36291157103 9.755178953956678 0.2272096336484689
0.5546516612463414 13.079817115794018 52303.256936276295 10.23720142215087 0.2304540344946086
0.5743344956182179 13.057845623473883 44727.89727074666 10.739474905806238 0.233733525041746
0.5943922506424238 13.039514333971102 38324.025803870965 11.26324420289971 0.2370542943812848
0.6148293656926984 13.024497104925912 32899.328156775926 11.809446971385693 0.24041795757705559
0.6356343116006969 13.012427612375705 28290.259301909275 12.379062302231054 0.2438261477332604
0.6568050501152493 13.003009656338653 24368.668752291353 12.97277932034923 0.2472768164976733
0.6783374720520386 12.995973592448642 21026.56248554409 13.591924644791623 0.25077474712589526
0.7002259279661621 12.991060071145053 18171.26972999201 14.23769616902703 0.2543225780562335
0.7224559994128664 12.98803099896566 15728.048108864079 14.911283692759628 0.2579222941231263
0.7450483388558835 12.98665707619886 13632.876956596978 15.613715978326159 0.26157378240000295
0.7679700896123584 12.986754429275583 11835.619128849354 16.34626113772946 0.2652789568800243
0.7912151874817651 12.988146234023537 10287.951863326483 17.110534447432425 0.2690424994015295
0.8147909329939146 12.9906628223579 8955.553002611718 17.907991100051216 0.27286684283233537
0.8386733509999111 12.99413697834577 7806.845045203252 18.739992359828076 0.27675303149696917
0.8628529462534182 12.998414621449225 6813.554175973336 19.60789092837396 0.28070161953791617
0.8873359626968463 13.003353576272518 5954.924807757732 20.51376886943123 0.2847189319094006
0.912091997297159 13.008846088951032 5210.812679455082 21.459420498669534 0.28880798233253235
0.9371117407723318 13.0147440552766 4564.897364255718 22.446324653077138 0.2929686493763259
0.9623967757638157 13.020947854328588 4004.181305194236 23.476517514601078 0.29720481849548913
0.9879181341162137 13.027339013385651 3516.2475776294905 24.552416501190624 0.3015225483596592
1.0136598676698734 13.033793856685067 3091.5757747801563 25.675957388875 0.3059234214368251
1.0396281031427343 13.040239013752435 2721.227776282386 26.849114737837624 0.31040879563104173
1.065776141421402 13.046582038127776 2397.943202996801 28.0749792467622 0.3149873586455619
1.0921085162798099 13.05270152426524 2115.588025584882 29.355597234016717 0.3196594956774445
1.1186074630747467 13.058543229842797 1868.4369650532974 30.693742095226483 0.3244300121237079
1.145238508369092 13.063995481759315 1651.9204165018712 32.092796058287306 0.3293068459574079
1.1720022773504224 13.069010317392474 1461.9306417151922 33.55471795207437 0.3342878095234344
1.1988583538287476 13.073464855823879 1295.366340551731 35.084042057789645 0.33938641425401916
1.2258055607129419 13.077332878898929 1148.956002155854 36.682781283527476 0.34459935777443895
1.252800950774476 13.080493389828797 1020.0541070039018 38.3559987209215 0.3499411434966428
1.2798451229385104 13.082931439805746 906.6055364607927 40.10594464387178 0.3554084105867911
1.306888576139875 13.084527293179356 806.661047468293 41.938071544851 0.3610156083744158
1.333926131711745 13.085231288229886 718.5153950748642 43.855880372154 0.36676476274051595
1.3609342684606638 13.08503291484652 640.5660172337344 45.86404556154506 0.37266354869640195
1.387864911109663 13.083776786123334 571.7306091069851 47.96790775030379 0.37872196379627415
1.4147225404841963 13.081483399310818 510.77039085460274 50.17223134782374 0.3849456978258621
1.441445409298333 13.078029380410586 456.80880112261036 52.48222210502202 0.3913416481345132
1.4680407566879514 13.07342950245339 408.9736749271852 54.90430356969391 0.39792154320272494
1.49444970743842 13.06756408466322 366.4936551755522 57.44466584001995 0.40469444443998376
1.5206619652316857 13.060416622321387 328.80068040488663 60.10993714390427 0.4116701233748889
1.5466453897764842 13.05192915591548 295.25741968792784 62.90722328025991 0.4188591201250512
1.5723616365807376 13.042047184065234 265.43600836147334 65.84415083658533 0.42627280664075995
1.597786015240389 13.030720178185543 238.89279550776394 68.92891456619382 0.43392345528117165
1.622873052522177 13.017895797566087 215.2088133494892 72.17032935612413 0.441824313350226
1.6476249845492974 13.0035555920102 194.0773485713556 75.57788727079033 0.44998968429528324
1.6719739385962378 12.987621602263268 175.20302035860072 79.16150383491406 0.45843369517092397
1.695910687656012 12.970069505745116 158.35012270297486 82.93141641730011 0.4671698075893799
1.7193913018301523 12.950858584902447 143.25891421654498 86.90034133247627 0.47621947961071853
1.7423733639299201 12.929914545774205 129.7648963855537 91.07983907101293 0.48559698218539843
1.764856237148256 12.907268303409435 117.665918277356 95.48403603279668 0.49532438043466814
1.7867824961038796 12.882831404686979 106.81079972775622 100.12656585247518 0.5054190578707601
1.80812123150021 12.85657261236316 97.0761055199148 105.02397307908791 0.51590678785037
1.8288309895218804 12.828438068184575 88.32082281502895 110.19280023818798 0.5268101098366823
1.8489108015881632 12.79847030611889 80.45647583800111 115.65070695055299 0.5381524988657529
1.8682865300916074 12.766530803356472 73.37796187455318 121.41785257537798 0.5499631002985738
1.886965731021885 12.732709353682418 67.00041647581325 127.51567523853633 0.5622717669575104
1.9048891510585015 12.69689283549949 61.249927433884366 133.9666217905058 0.5751078151530729
1.922030124999305 12.659075273098424 56.06863093600065 140.79639558183254 0.5885076077592124
1.938343454052256 12.619186209970996 51.3862524929725 148.03266851739252 0.602509384736796
1.9538396407849605 12.57734140562367 47.15688006029482 155.70392523130167 0.6171488560050891
1.965677578044235 12.536329149292094 43.844068627759704 164.42850085234028 1.1536162239503216
1.966022498229927 12.495321480890187 42.38038812339538 175.86391357534447 1.8545116859025383
