M[M_sun], R[km], Lambda[1], P_c[MeV/fm^3], rho_c[fm^-3]
0.24162668629717493 15.618656898711224 2160425.4255784233 3.5677272577965504 0.1711233750220791
0.2536421058917282 15.277366747138464 1723207.0616440917 3.78480488799839 0.17388798960029767
0.2660381774693884 14.981280929933462 1383088.2240035208 4.011370546153918 0.17666628725067846
0.27881180511629466 14.723611012817681 1116498.6087422995 4.247680781913762 0.1794569640707785
0.2919650867054632 14.49852818591853 905983.0286339711 4.494360527125897 0.18226658171075477
0.30549959811041216 14.30130260048469 738663.6105258237 4.751563852191639 0.18509081638810068
0.3194151993322192 14.128214325420949 605163.1413344641 5.019975563541436 0.18793634231066478
0.333712554447021 13.976068782467788 497745.5317648887 5.299816221797718 0.19079971420737785
0.34839234667120395 13.842093179958011 411048.1755996435 5.591818477153738 0.1936873104731362
0.3634540330475006 13.724044705794588 340691.3050880391 5.896144507411699 0.19659409996236907
0.3789054465240293 13.620071187261763 283334.25190898933 6.2136604731357705 0.19952780729468983
0.39473616442440784 13.528523343820165 236439.0555656905 6.5446272712192695 0.2024846729037697
0.4109598192366063 13.4479518316709 197896.3316438428 6.889740322270094 0.20546829026963717
0.42756355764402504 13.377162660347171 166102.4060303072 7.249707732415446 0.20848178884569485
0.444559826549296 13.314990893304891 139823.05220423258 7.624793523408384 0.2115207963997223
0.4619394184105762 13.260626643867315 117970.46317324093 8.015936565204457 0.21459131871484938
0.47970152536662486 13.21321582646435 99827.81439012096 8.423846350016225 0.21769507766977467
0.4978571995398196 13.172065375860209 84661.99677069247 8.848970658115107 0.2208296418007601
0.5163937725155536 13.13644378774779 71954.54691593027 9.292168905956041 0.22399822350919682
0.5353106778520356 13.105875426140512 61290.682340979794 9.754332168487984 0.22720383610692055
0.5546147989530533 13.07984302351561 52311.74030902716 10.236269780313386 0.2304478301234056
0.5742948880122233 13.057872066257234 44739.94329138108 10.738462455591648 0.23372702479775048
0.594349650266855 13.039554500221708 38335.80419148032 11.262135718775378 0.2370473685524165
0.6147834619940883 13.024531990790447 32911.043249948096 11.808235905121908 0.24041059227355233
0.6355830223460707 13.012454814499828 28301.833283748958 12.3777416970776 0.24381832833215397
0.6567545832595306 13.00304433517621 24377.65244576206 12.971355240723106 0.24726867704250172
0.6782844246365706 12.99598463014027 21034.1979363429 13.590376868817557 0.2507661295239456
0.7001701886739092 12.991068723153196 18041.623401671786 14.236016397997123 0.254313465216415
0.7224019396981307 12.987994369942792 15734.789471993787 14.909463094767391 0.25791266793526174
0.7449868172406634 12.986642489789222 13541.939195009 15.611762917206498 0.2615637996470759
0.7679051716355024 12.986750863270252 11839.54559641827 16.344149165508593 0.26526842922820415
0.7911459375820501 12.988138603802987 10293.204460993727 17.10825296484017 0.2690314053242582
0.81471907016815 12.990660805921879 8959.579335188799 17.90552880511059 0.2728551594189046
0.8385973032434493 12.994133390649193 7809.544854288789 18.737360173667614 0.2767409379634916
0.8627773313208438 12.998389033984683 6817.037172631151 19.605054627001568 0.28068889484241993
0.8872492102655726 13.0033307622679 5957.623800634159 20.510714802183717 0.2847055485131814
0.9120079975680774 13.00883667898065 5213.212771887302 21.456134080135005 0.28879391084007155
0.937024854166394 13.014728050968982 4566.913921728187 22.442819573050475 0.29295409126938504
0.9623014619939575 13.020924282819044 4006.170260840677 23.472749788038932 0.29718951663841964
0.9878232920731232 13.027314435015489 3517.907203966181 24.548368394311975 0.30150646715275686
1.0135634096394561 13.033772048076298 3093.4182427414926 25.671644571045277 0.3059067774422184
1.0395243103561778 13.040224220119388 2722.560512300509 26.844484485603246 0.3103913033718677
1.0656723782307012 13.046547216166736 2399.266177893976 28.07000988681884 0.31496897482228803
1.0920016378609825 13.052682803677966 2116.6822531513435 29.350306378244984 0.31964045184526824
1.1184980935543487 13.05851887361517 1869.4057864673587 30.68806657833392 0.32440999137010507
1.145125537609932 13.063978918614326 1652.807818097022 32.08675440350035 0.32928608742663895
1.1718857351241396 13.068992151328569 1462.7577548106572 33.54823929411957 0.33426597577814915
1.198739613935732 13.073451265621996 1295.9363200646692 35.077095820084935 0.33936344492905895
1.2256829048099576 13.07731827644126 1149.570069637291 36.67538762292022 0.344575506969834
1.2526762131620863 13.080487691382263 1020.6106498182994 38.348092308546846 0.34991615096837686
1.2797146338653163 13.082933681817375 907.0944958634133 40.09750666968612 0.35538230631360573
1.3067573405712873 13.08451894353005 807.1304856267549 41.92908686680847 0.3609884463315205
1.333793097643556 13.08522875750239 718.8760202288172 43.84624826155627 0.36673613112645875
1.3607997165773131 13.085033198971566 640.9131244212737 45.8537862001389 0.37263371586706173
1.3877289074402186 13.083780512733814 572.0868995001648 47.956977319299455 0.37869085226121596
1.4145830862376345 13.081500120204023 511.06165050466996 50.160509997224565 0.38491285330976366
1.4413070251315145 13.078047008990218 457.08641473252493 52.46972844140285 0.39130734521518623
1.4678976758860196 13.073459962325586 409.2051831110656 54.89098227510437 0.3978856846734725
1.4943061154190111 13.067598354929794 366.7107376724447 57.43045711581145 0.40465692557975463
1.5205164370926443 13.060462281560397 328.99763408260947 60.09477630957276 0.4116308313312076
1.5464989959235924 13.051981322328414 295.43304154586986 62.89104033226293 0.41881793323579747
1.5722141146631352 13.042108780084758 265.592115330968 65.82686996267427 0.4262295936882318
1.597637509061639 13.030789456975967 239.03706073200186 68.91045361026359 0.433878074671104
1.6227184621765838 13.017951265988344 215.34333610489676 72.150599227964 0.44177661220755327
1.647477056923052 13.003649404621457 194.19739529615333 75.55679129442683 0.4499394974674536
1.6718262835121418 12.98772440127541 175.32178188634433 79.13904717717092 0.45838130404533006
1.6957640936882155 12.970185661427056 158.44497913401878 82.90737999120242 0.4671145719522129
1.71922843166778 12.950952895901175 143.3579087678402 86.87460141235887 0.47616119135593427
1.742231725871051 12.930059700862545 129.8437354208365 91.05238494254651 0.48553590685506204
1.7647125944090203 12.907421459027072 117.73906808455905 95.45460323717481 0.4952597983090498
1.7866406343325525 12.882997783163919 106.87613827744049 100.09512876224075 0.5053512179938938
1.8079804537505133 12.856754666384 97.1368631881171 104.99036868665317 0.5158354288525973
1.828692801140355 12.828636068172525 88.37447530121347 110.15683639804655 0.5267348956171686
1.8487743113346198 12.798682837048705 80.50235699355923 115.61207138963636 0.5380726911290062
1.868163636494788 12.766791984434317 73.42043886015534 121.3764606578278 0.5498788415228871
1.8868369281152642 12.732956360730181 67.04261448138162 127.47130647869737 0.562182737823902
1.9047625809825741 12.697155744707146 61.28837191639472 133.91916126079965 0.5750141133310692
1.9219085206512625 12.659358483549285 56.104041362498904 140.7454195398278 0.588408287044178
1.9382256291143694 12.619486409027193 51.41828759740338 147.9778717158645 0.602403980362746
1.9537377366658846 12.577696025177111 47.186969413867445 155.64515287730052 0.6170374765110612
1.9683483780788331 12.533750229770344 43.36163360768759 163.78072632538647 0.6323557980614646
1.9820717294157784 12.487772449262637 39.89862761251485 172.41817105664876 0.6483999189409163
1.9948655102199793 12.439713736149807 36.76545732747659 181.59706477816385 0.6652240504460276
2.00670054954996 12.389559917672669 33.92266484046259 191.35921151815324 0.682882019566379
2.0175598189483672 12.337319872445661 31.343880297745816 201.75060105051304 0.7014330016867747
2.0274035034435065 12.282954285087682 29.006521273029907 212.82131465600375 0.7209402018161178
2.036220870218452 12.226509033041912 26.883487464308356 224.62642545830178 0.7414727024257459
2.0439729974495946 12.16793696337441 24.95438438065859 237.22740303708468 0.7631087607127387
2.050641020944717 12.107253882379318 23.198748874872916 250.69075619618476 0.7859299429366701
2.0562153421146006 12.044508053750635 21.60368225103088 265.0896532657202 0.8100247855895499
2.0606786029104356 11.979701578543388 20.151492440722922 280.5059797751634 0.8354936283914497
2.0639982335918043 11.912842283922503 18.830754763956577 297.0289162277606 0.8624418452209862
2.066163013553782 11.843951048642532 17.62708830775244 314.75893548858744 0.8909904541764603
2.0671652233041447 11.77308384527058 16.530529584240433 333.80552760330477 0.9212658497902461
