M[M_sun], R[km], Lambda[1], P_c[MeV/fm^3], rho_c[fm^-3]
0.24162668629717493 15.618656898711224 2160425.4255784233 3.5677272577965504 0.1711233750220791
0.25364596861230193 15.277230528203594 1723196.7349751482 3.7848573716674534 0.17388864378391358
0.26604361264974086 14.981198778470134 1382973.8932878026 4.011480877899819 0.17666762054471433
0.2788215093822295 14.723382566131601 1116355.9743388782 4.247852695047607 0.17945895800406353
0.29197863309355204 14.498269222644558 905758.3517467339 4.494598533416388 0.18226923196603778
0.305515972104089 14.301085053723053 738530.0044711854 4.751876033788967 0.18509418854515935
0.3194361175990778 14.12796199696256 604989.3242726133 5.020364220717403 0.18794037477887332
0.33373595715751075 13.975835452708376 489594.40448318876 5.300291587681798 0.1908045003530559
0.34842022640912595 13.841865347828891 410906.12738727435 5.592381739296969 0.19369276018932002
0.3634863219053347 13.72380710030469 340564.80448537786 5.89680832127778 0.1966003346426773
0.37894219823538344 13.619848196256347 283209.5109904292 6.2144328727693265 0.19953485064931817
0.3947770707797735 13.528324761354058 236327.8894849449 6.545507455348604 0.20249239092951343
0.41100631607547045 13.447718913191272 197793.30983818663 6.8907452840821595 0.2054768489461446
0.4276191359566861 13.376893046860333 164009.83390643 7.250846903476485 0.20849121291593828
0.4446165409728713 13.314792328116315 139754.94334650604 7.6260637557919715 0.2115309082662524
0.46200004866760447 13.260435261754838 117931.83763729029 8.017360016472034 0.214602330261215
0.4797701599723553 13.213045844181877 99766.38317847995 8.42543412136587 0.21770701549066035
0.49793092591750543 13.171884924380707 84604.95606416657 8.850716895701806 0.2208422853069977
0.5164741677843091 13.136305126701597 71908.33764540272 9.294101871536235 0.22401183170738773
0.5353968336986803 13.105749923453967 61245.60794831465 9.756464969671523 0.22721843839278053
0.5547070145013289 13.07975111338548 52276.60348961446 10.23860738858416 0.23046334231582175
0.5743939235347822 13.057776065801628 44705.34241405365 10.741012540833587 0.2337433971349213
0.5944557644170447 13.039456832758306 38309.1712572111 11.264927701040975 0.2370648129081365
0.6148970139420848 13.024456270416703 32607.18448209139 11.811286280159774 0.24042914364322093
0.635705883513321 13.01241721465891 28043.954587510983 12.381067989851674 0.24383802355849007
0.656881193135726 13.002982068317543 24355.740031451907 12.974942176235464 0.2472891784949982
0.6784177611306497 12.995968137968319 21014.545431784198 13.594275386778568 0.25078783542747707
0.7003118776841591 12.991044988330561 18160.92889915366 14.240247404280117 0.2543364186319946
0.722550983266925 12.988000928683007 15719.158803237058 14.91404883859845 0.25793691449150574
0.7451433548638797 12.986650503826883 13625.124958842109 15.616682330864654 0.2615889444265203
0.7680691294398516 12.986764457257257 11828.028101866328 16.349468874285066 0.26529494664222586
0.791319981142619 12.988148847069695 10282.771675248912 17.11399967072238 0.2690593496089655
0.8148982967829898 12.990683106539 8950.00741797414 17.911730980539236 0.27288458829783674
0.8387876864567507 12.99414907527127 7801.845470645432 18.74399030821972 0.27677140000123474
0.8629722812135123 12.99842888160416 6809.242828148861 19.612198936977798 0.2807209468556027
0.8874577236985157 13.003384430250065 5950.719218370849 20.518407677525094 0.2847392598857265
0.9122212073989057 13.008873132132335 5207.1745921587135 21.464412265915616 0.28882935563432927
0.937245980653086 13.014776369519403 4562.117510011097 22.451648583247206 0.29299076195126617
0.9625340637993739 13.020983789847953 4001.3834233873094 23.482240431926254 0.2972280609631911
0.9880606650134927 13.027366011495682 3513.7239809673874 24.55856534945839 0.3015469748148317
1.0138083810409582 13.033834799628588 3089.6950221689935 25.682508363609156 0.3059487029099707
1.0397761409819646 13.040290805108524 2719.172228112115 26.85614794199146 0.3104353658098691
1.0659341994604352 13.046618659666345 2396.3063911787995 28.082527610650047 0.31501528332586315
1.0921106563681087 13.052675602256876 2115.5397276806875 29.206317741005265 0.31909743107328453
1.097156762403525 13.039059247435222 2044.698537756255 31.359153815512297 1.214932747319984
