M[M_sun], R[km], Lambda[1], P_c[MeV/fm^3], rho_c[fm^-3]
0.24162668629717493 15.618656898711224 2160425.4255784233 3.5677272577965504 0.1711233750220791
0.25363800954565585 15.277442747522437 1723351.1876736593 3.7847232522021894 0.17388697204948045
0.2660287778820974 14.981498579612627 1383242.7378226249 4.011198934800213 0.176664213428747
0.2787978583739397 14.723841105109742 1116756.189626869 4.247413392605277 0.17945386275774716
0.29194609988960385 14.498805020757707 906245.1747195532 4.4939903469658224 0.182262459668758
0.30547466177153126 14.30164316344845 739049.2400069912 4.751078316030587 0.18508557167090164
0.3193837366814769 14.128582555765377 605337.6182540697 5.0193710985978495 0.18793007075357304
0.3336743850344108 13.976429481012206 498004.7696102096 5.299076919121 0.1907922706561483
0.3483477730446751 13.842480055559232 411292.8140429283 5.590942494796971 0.19367883510286002
0.3634024971956453 13.724426970371745 340894.13990425196 5.895112171136397 0.1965844040416058
0.3788480586702236 13.620420493860253 283531.04036096064 6.2124592959535505 0.19951685400509947
0.39467060536878906 13.528872669234286 236622.10102311903 6.543258504148583 0.2024726706656735
0.4108861088435951 13.448280924357906 198042.54456784436 6.888177549217314 0.20545498103852744
0.4274830602669683 13.377474645623556 166251.3742906244 7.247936295477525 0.2084671342018878
0.4444705109691863 13.315306835060657 139953.86963432052 7.622818322232459 0.21150507252831174
0.46184250185986553 13.260896655690454 118109.65310883686 8.013723158025416 0.21457419622085663
0.4795960515072967 13.213471558352174 98859.54124038722 8.421377485426122 0.2176765152594665
0.4977427848117864 13.17229374374116 84749.09708397987 8.846255442136194 0.22080998247695022
0.5162689680068391 13.136666612720221 72035.21219259364 9.28916341176112 0.22397706464269385
0.5351751841350577 13.106099741164519 61363.24546886545 9.751016028170595 0.22718113205497237
0.5544713766920777 13.080039638965841 52378.02362315132 10.232621388777744 0.2304235332590204
0.5741394914504103 13.05804446475381 44794.20967748881 10.734497666552933 0.233701569623984
0.5941882936281796 13.039710449212839 38385.361771206684 11.257794927510394 0.23702024721004064
0.6146097868794113 13.024653668952697 32951.86556798955 11.803493481367568 0.2403817504245666
0.6353984555635822 13.012543009798303 28106.847570868467 12.372570412119929 0.2437877087701949
0.6565534403834642 13.003094613755525 24411.854277311122 12.965778841057853 0.2472368046287254
0.6780754979364121 12.996052443225631 21064.48103335705 13.584316196788263 0.25073238532583775
0.6999500287837648 12.991115822176038 18204.461671029963 14.229438974190675 0.25427778237125376
0.7221692186660369 12.988033390233678 15757.295847816382 14.90233435361278 0.257874975593578
0.7447433071007125 12.986665561803164 13658.910194113465 15.604115604169849 0.26152471165549573
0.7676491944790945 12.98674349995941 11857.874861616294 16.335879760146245 0.26522720831651136
0.7908794445129681 12.988107249874334 10308.822398582315 17.099319986842115 0.2689879672772138
0.8144372513116638 12.990623093112365 8974.42189632773 17.895888024993877 0.27280941460659963
0.8383062049486705 12.994081081614148 7822.8630350357835 18.727054343399935 0.2766935880057914
0.8624717637274849 12.998345696585094 6828.484078750129 19.59394980188326 0.28063907449556075
0.886931629244161 13.003278132990076 5967.993067189155 20.49875756426121 0.28465315004260594
0.9116770579475965 13.008750436311903 5222.3011910942005 21.4432673547539 0.2887388192480259
0.936681361964147 13.01464433016065 4575.427852727002 22.429096943868565 0.2928970952802436
0.961942547515032 13.020839796012732 4013.411446151246 23.457999123753265 0.29712960980790615
0.9874533765634533 13.027230772339209 3524.4395388057023 24.532520304292373 0.30144351021455057
1.0131824103070588 13.033676969646487 3098.942037562533 25.654760381850032 0.3058416181044027
1.0391291186783564 13.040129173591522 2727.8058393466913 26.8263578835768 0.31032282433346076
1.0652690588396605 13.046467188521888 2403.8409176560426 28.050556071466954 0.31489700670013415
1.0915818304848857 13.052589414022465 2120.8169117575494 29.32959427273772 0.3195659009827397
1.118065786853309 13.058428430696953 1872.9888382658644 30.66584902672783 0.32433161751715317
1.1446825496404898 13.063888779129936 1655.9948528072275 32.0629974769295 0.329204138166793
1.171431198279346 13.068911299715879 1465.7187414784719 33.522878550205064 0.33418050745635514
1.1982772988340191 13.073392609478855 1298.7700220274287 35.049905221035516 0.3392735329893906
1.225204860052538 13.077257534436413 1151.9466971467057 36.64644604019882 0.34448214590403553
1.2521878982389198 13.080435175797495 1022.7849755785912 38.317066939833275 0.3498178694017293
1.279217472883673 13.082887237394498 909.089267263703 40.06447835543076 0.3552801277433465
1.3062502807131178 13.084496926570305 808.8791057847222 41.89391915827054 0.36088212902072586
1.3332740591223828 13.08523033996353 720.48590264273 43.808547103110094 0.36662406378595336
1.3602715971128214 13.085044868698082 642.4135154319877 45.81363054920219 0.37251694868887064
1.387191811540391 13.083810772059223 573.3194224573142 47.91419576012869 0.37856908213362817
1.4140323107171375 13.081538113032305 512.2248158495531 50.114633708516656 0.3847843028931326
1.4407608141809318 13.078150139488626 458.1343892932298 52.42083021148531 0.3911730889964162
1.4673365587978022 13.073555692877722 410.1879998648524 54.83884572122835 0.397745342446993
1.4937425771397224 13.067735459318923 367.57487253583935 57.37484833449041 0.40451008775932246
1.5199488610308838 13.060632381004778 329.7595389405811 60.035442308556206 0.4114770565382937
1.5459267479846552 13.052185436084807 296.1440472187872 62.82770730611531 0.4186567456490529
1.5716387993616292 13.04234410767608 266.22979096407727 65.7592413945511 0.4260604801284146
1.597053715480001 13.031055607439187 239.60409096766378 68.83820818035669 0.43370048139282735
1.6221484639501365 13.018286342529597 215.8581599898526 72.07338850669034 0.44158994136581087
1.6468973415797774 13.004002647594296 194.6673405524406 75.47423719571867 0.4497431032230199
1.6712514892816255 12.988125700913022 175.75127448304164 79.05094537817365 0.45817534953675776
1.6951752619646896 12.970612736091093 158.8393056418104 82.81332272370074 0.46689842862543324
1.7186701523311316 12.951482281110803 143.70786402899026 86.77388034855412 0.4759331077021227
1.7416695485555862 12.930625918954258 130.1775220321263 90.94495814477129 0.48529692177239503
1.7641509222245484 12.908036302636686 118.03964861635167 95.33943661078405 0.49500709701529044
1.7860819485162263 12.88365667592221 107.15124644218605 99.97212205259228 0.5050857748509674
1.807428271721847 12.857467109724398 97.37709811628444 104.85888449251128 0.5155562218907354
1.8281594702854151 12.829427837511872 88.60126185847473 110.01562365225372 0.5264387501166866
1.848242553134814 12.79951512907361 80.70790119371392 115.46090872080744 0.5377604412174325
1.867643623224477 12.767685412600079 73.60977512733578 121.21451734405464 0.5495491842816488
1.8863294180687697 12.733922317533187 67.2092438489394 127.2976740052299 0.5618342588350906
1.9042701034238791 12.69818553991683 61.44085506746605 133.73348316639738 0.5746475271201825
1.9214215511196997 12.660428243898307 56.24597396649765 140.54599282580432 0.5880197279671139
1.9377670578222526 12.620660367273468 51.54839451077993 147.76350309557597 0.6019916316561171
1.9532874957366912 12.578915962167812 47.306154500230505 155.41523711685772 0.6166017631301302
1.967934886760453 12.535093648628456 43.470590684072626 163.5331572829962 0.6318922533971848
1.9816757374554126 12.489181648667389 39.996758996601244 172.15210580106856 0.6479086585374607
1.994504000262591 12.441235569801469 36.85322156112793 181.31082550648787 0.6647026616437376
2.0063536666774064 12.39112696039062 34.005697792417976 191.05094101455256 0.6823278379849074
2.0172454794893095 12.338990638919652 31.423309901763453 201.41825069011304 0.7008431125807244
2.0271069528854375 12.28468354431996 29.077315160125007 212.46318983832037 0.7203132721093765
2.035944884987799 12.228298656889912 26.947964216084017 224.23975607042988 0.7408043351835167
2.043740633693792 12.169852610261392 25.013223909711385 236.80998074576686 0.7623969294781036
2.0504408677517905 12.109260899560525 23.253867922307162 250.23877642225898 0.7851680072028427
2.05604998109851 12.046601307773921 21.652961703662836 264.6006001272744 0.8092109727537876
2.060548488226661 11.981886732776347 20.199234099424263 279.9762565034291 0.8346234028574558
2.063904496675536 11.915123299193592 18.872393615119428 296.45513246131395 0.8615122127081276
2.066107049184825 11.846322594733309 17.665313690736962 314.1356543193339 0.8899927036144564
2.067150340657024 11.775551701324359 16.5674199145645 333.128641899448 0.9201967628902528
