M[M_sun], R[km], Lambda[1], P_c[MeV/fm^3], rho_c[fm^-3]
0.24162668629717493 15.618656898711224 2160425.4255784233 3.5677272577965504 0.1711233750220791
0.25364406406807105 15.277292679908072 1723255.5120439208 3.784821135535156 0.17388819211800538
0.26604017810123964 14.981254280363995 1382945.2628044242 4.011404701672284 0.17666669999996068
0.2788143486358861 14.723547639084076 1116527.4067727919 4.247734000900098 0.1794575813308207
0.2919697576738683 14.49840990565655 905861.044957256 4.494434206037161 0.18226740214253168
0.3055047987475207 14.301241698333557 738667.2469197911 4.751660492709128 0.18509186029013078
0.3194218938153263 14.128122012532355 605082.86003627 5.020095877489088 0.1879375906143086
0.3337191668997571 13.97598246270383 497667.4262732378 5.299963376637835 0.19080119581244379
0.34840073455884096 13.842028834682518 411006.8176528937 5.5919928402389365 0.19368899748395113
0.36346380856916854 13.724016971464074 335715.75433295587 5.89634999595767 0.19659602995427883
0.3789167513078574 13.620003804194042 279385.65294588724 6.213899573752176 0.19952998760441557
0.39474925434296815 13.528442570131434 236410.14007513228 6.544899735602168 0.20248706204832637
0.41097376630248844 13.447896029046296 197879.24911322145 6.890051410194887 0.2054709396249477
0.4275819626898792 13.377078716977747 166080.8073524099 7.250060362973045 0.20848470606792638
0.44457701202105104 13.314927373785855 139799.03631508877 7.625186721912949 0.21152392651264443
0.4619582758057124 13.260569750688223 117981.90065357741 8.016377189792623 0.2145947273022685
0.47972324226833457 13.213154691509828 99812.66380940042 8.424337836462414 0.21769877296076454
0.4978806579846055 13.171981260727277 84643.61262745231 8.849511194190727 0.22083355551290088
0.5164174322969397 13.136411775647785 71937.99110445364 9.2927672389701 0.2240024358109175
0.5353376195089288 13.105850444613072 61277.5337151974 9.754992355110689 0.22720835609399673
0.554644416520865 13.0797983131408 52300.26185789703 10.236996123707057 0.23045266728706
0.5743260944706687 13.057841683573683 44731.123365671665 10.73925179977535 0.23373209263191808
0.5943831310311162 13.039537479795186 38327.99960512376 11.26299993397645 0.23705276818463192
0.6148195331233204 13.024509107469198 32900.465387765034 11.809180096471506 0.24041633453230637
0.635623352747254 13.012435780250476 28292.165731595258 12.378771288192985 0.2438244246175469
0.6567938169351024 13.003021581434858 24370.867824407505 12.972465503574696 0.24727502284967667
0.6783247116739142 12.995984121496923 21028.143481540643 13.591583568853688 0.2507728481064525
0.7002138936416904 12.991065402867108 18172.35158416045 14.237326005035777 0.2543205698985151
0.722447784915627 12.988014929223088 15729.676008117296 14.910882494311684 0.2579201728356991
0.7450358616780065 12.986651019569338 13634.441080445047 15.613285588564588 0.2615715825330306
0.7679556539790429 12.986747673563444 11836.565482584716 16.34579572806075 0.26527663692955455
0.7911999130955855 12.988144768935475 10288.874910763263 17.11003168193615 0.2690400546231718
0.8147749833650653 12.990656303235689 8956.581587104198 17.907448487933014 0.2728642681766331
0.8386554486567753 12.994141031132365 7807.446161463414 18.739412307833472 0.27675036645818096
0.8628375174215954 12.998404613122439 6814.799051193118 19.60726589412685 0.28069881540343783
0.8873180669416347 13.003358777893084 5955.826302037376 20.513095844494035 0.28471598260977166
0.9120726594200355 13.008851023540458 5211.1776540641595 21.45869626858715 0.2888048813890472
0.937093920267643 13.014735219012293 4565.386751367516 22.445552234799 0.29296544119054674
0.9623714004952254 13.020934164096053 4004.4383616617088 23.475687214442484 0.29720144639983886
0.9878965337668633 13.02732921637395 3516.656548779005 24.551524410796645 0.3015190045080191
1.0136388783512094 13.033789868097786 3091.8577834647263 25.675006961499918 0.3059197535545427
1.0396027887767008 13.040243768277294 2721.502487784955 26.84809435384373 0.3104049408040529
1.0657536099288254 13.046567913678041 2398.373532930482 28.073884129515843 0.3149833073306741
1.0920853661722072 13.052697048824268 2115.811833815651 29.354431264921917 0.3196552989046119
1.1185831467229743 13.0585373858138 1868.6158931032464 30.692491353224767 0.3244256000502508
1.1452137272243441 13.06398965701258 1652.1402877546436 32.091464625667335 0.3293022712860665
1.1719769057510798 13.06901099348266 1462.065014478766 33.553290210649934 0.3342829978876277
1.198832863061243 13.073458064623075 1295.5086934480657 35.0825112685982 0.33938135234916095
1.225778240095477 13.077327746495097 1149.0811263622318 36.68115188894789 0.34459410159975007
1.2527732629101147 13.080492033114451 1020.1883756487241 38.35426410818656 0.3499356813674318
1.2798154941660527 13.0829331223231 906.7046563453084 40.104085096458235 0.35540265776832825
1.3068595932112805 13.084517502299237 806.7728219485101 41.93609151088731 0.36100962243176976
1.3338959985326235 13.085238954510077 718.599062424215 43.853757651231945 0.36675845291614523
1.3609040716207206 13.085038331013905 640.6328897921754 45.861784601633424 0.3726569741321071
1.3878350636976067 13.083774958535182 571.8077914637093 47.96549889377758 0.3787151074130048
1.4146916603439401 13.081484776615603 510.84679629034804 50.169648179640554 0.38493845950394173
1.4414156443485169 13.078030722713251 456.8873118356398 52.479468726047656 0.3913340883874516
1.468008997859829 13.07343836785291 409.02594937126105 54.901367787747425 0.3979136406057139
1.4944180366779998 13.067572150948966 366.54212194181554 57.44153447531212 0.40468617591192485
1.5206296941182416 13.060427660048216 328.84055905917216 60.10659594061125 0.4116614640423702
1.5466133880513477 13.051940918295603 295.29586842726275 62.90365680927418 0.4188500431728455
1.5723292659718084 13.04206244748735 265.46535655140616 65.84034238845967 0.4262632831473934
1.5977536355886448 13.03073367913491 238.92540789781955 68.92484603317801 0.43391345403795134
1.6228399326700667 13.017914524243176 215.24204876686713 72.16598110205415 0.4418138006619106
1.6475928925990713 13.003575811352578 194.10654040733914 75.5732379874417 0.44997862376037706
1.6719414149145555 12.987642912240716 175.24092606458782 79.15655466138406 0.4584221488057007
1.6958781373536107 12.970098237175602 158.36308587826184 82.92611906442842 0.4671576342879092
1.719358855341017 12.9508858154655 143.28032598794925 86.89466852966287 0.47620663350341824
1.7423446287003104 12.92994623692839 129.779718578575 91.07378845704226 0.4855835217964646
1.7648244885927546 12.907301308795466 117.68031404050672 95.4775493171641 0.49531014713215704
1.7867509570993043 12.882865632934303 106.82335025224417 100.11963738692698 0.5054041065426901
1.8080902273160935 12.856612880120402 97.08636192178002 105.0165669344558 0.5158910608867199
1.8288004318790905 12.828480504697795 88.33242066689493 110.18487722435209 0.5267935449223345
1.8488808351882355 12.798518027451186 80.465987569063 115.64219191309608 0.5381349097366804
1.868256915617633 12.766581535779235 73.38726359272226 121.40873002122107 0.5499445301213534
1.8869384489450152 12.732762375770392 67.00920144545023 127.5059058373059 0.5622521784605563
1.9048599294518465 12.696951541824285 61.25690362143601 133.9561616730736 0.575087163633424
1.9220031958737593 12.65913603354841 56.07620188510072 140.7851606144704 0.5884857177703487
1.9383169405723946 12.61925329892783 51.39239270043943 148.02059141655997 0.6024861538324714
1.9538154725015562 12.577409945237456 47.16319345877071 155.69097187803905 0.6171243081040074
1.9684323111659212 12.533483753824258 43.341318746727936 163.82992225924133 0.6324476964747522
1.9821483205698023 12.487488260578298 39.880406021909586 172.47119684380985 0.6484978252591896
1.9949387324994825 12.439416556813464 36.745586111322616 181.65411262415682 0.665327963888517
2.006775613485904 12.389260315751889 33.903127682792416 191.42065184294182 0.6829924715751173
2.0176236640455834 12.336990426833873 31.327441042978563 201.8168424679034 0.7015505736684655
2.02746194756648 12.282608084246382 28.992170268979336 212.89264138318973 0.7210649836579871
2.0362729095442327 12.22614682390926 26.86997743147597 224.7034976049452 0.7416059234660466
2.044019809396818 12.16755623147319 24.943450909291986 237.31059604174501 0.7632506124279241
2.050680639949203 12.106854131531234 23.188834112425162 250.78077847604635 0.7860815852498352
2.0562541071611684 12.044112873263904 21.594033565199343 265.1871417347802 0.8101870120660264
2.060703222111889 11.97926743392747 20.142492136702693 280.61141239891595 0.8356665624336321
2.064011012207887 11.912375465362159 18.821727058170598 297.14330226331936 0.8626271710944088
2.0661739525880494 11.843479944442231 17.619391144710615 314.8831933394187 0.8911893665560028
2.0671681867578022 11.772593785423833 16.52422187283134 333.9404767163213 0.9214789911345966
