M[M_sun], R[km], Lambda[1], P_c[MeV/fm^3], rho_c[fm^-3]
0.24162668629717493 15.618656898711224 2160425.4255784233 3.5677272577965504 0.1711233750220791
0.25364093780895447 15.277374031618061 1723226.6194289373 3.7847800077861486 0.1738876794804547
0.2660348869567212 14.98138485705749 1353479.3544208538 4.011318243456767 0.17666565520345032
0.2788070237954718 14.723695824694211 1116519.9911905783 4.247599287738527 0.1794560188611549
0.29195995861962165 14.498552923959748 906041.7141852862 4.494247703508868 0.18226532539359416
0.305493471116125 14.301356204741449 738772.682546355 4.751415868836365 0.18508921788543325
0.31940599100389 14.128320980452537 605234.15541073 5.019791330900274 0.18793443082590547
0.33370050293862863 13.976140584978548 497794.1561476051 5.299590890230559 0.19079744549238925
0.3483775465675651 13.842233334544959 411115.27350896277 5.591551484614305 0.19368472724687008
0.363437534514768 13.724168843982484 340763.90469592327 5.8958298563829645 0.19659114469331995
0.37888845711217506 13.620170139598685 279477.3002591851 6.213294356712515 0.19952446875374263
0.3947161243285507 13.52864418476051 236495.0725640366 6.544210070072164 0.20248101461332071
0.4109374041640786 13.448062564901377 197947.1776174639 6.889263983482546 0.2054642335686346
0.42754080061150673 13.377228773674803 166152.78681268528 7.2491677870817135 0.208477322016325
0.4445328563679471 13.315069601311448 139863.97747158082 7.624191464385612 0.21151600362277834
0.4619094007820266 13.260714865607085 118039.58537562902 8.015261892648965 0.2145860995771833
0.479669883477779 13.213284401074189 99860.01653533809 8.423093804142923 0.21768941957684726
0.4978215801101417 13.172112406994676 84684.65306383591 8.848143014090605 0.2208236493043976
0.5163550721434742 13.13651581959841 71977.25895981438 9.291252771913346 0.22399177386842195
0.5352692432833812 13.105944843833086 61313.09626649312 9.753321334259834 0.2271969154007289
0.5545705749197453 13.079920661636779 51844.8112958223 10.235157658441597 0.23044042382557967
0.5742489910917273 13.05791347028141 44757.04777043939 10.737253878448826 0.23371926535812323
0.5942999693529791 13.039590774043816 38354.26728662578 11.260812513993715 0.23703910114499557
0.6147312428613371 13.024558914710296 32924.20592617003 11.806790257724924 0.24040180032536923
0.6355273054657923 13.012474923234828 28312.28039212306 12.376165304612622 0.24380899439539583
0.6566940791818284 13.003057385682876 24387.781589188988 12.969655342109368 0.2472589611191018
0.6782213387026849 12.996007519596446 21043.032093725047 13.588529329233873 0.25075584291852915
0.7001027282199385 12.991080535847246 18185.95554139437 14.234011313681346 0.25430258753614376
0.7223313590071043 12.988013768358039 15741.778391383092 14.907289925723925 0.2579011775713467
0.7449128196898243 12.98666301797116 13644.58793484248 15.609431646439182 0.26155188373730637
0.7678270122226213 12.98674448824338 11844.913742761153 16.34162822856899 0.26525586298983306
0.7910648767378476 12.988124500592894 10297.008031465073 17.105529712863365 0.2690181630720655
0.8146350623566563 12.990642312275861 8963.853890108789 17.902589750760526 0.272841213816166
0.8385082982652673 12.994115438268423 7813.440848856409 18.734218351547216 0.2767265029164708
0.8626844524531547 12.998365389563508 6820.377318103248 19.601669193970466 0.28067370653949025
0.8871518633752752 13.003325111783958 5960.749941526104 20.507069468476747 0.28468957409565954
0.9119067274834158 13.008811021580632 5215.750949431527 21.452211440681197 0.28877711523387567
0.9369220298514965 13.014693902234448 4569.364888941211 22.438635966023387 0.2929367149475791
0.9621918923474938 13.02089533835664 4008.331604280236 23.468252723553753 0.2971712527233373
0.987709831535583 13.027290509019165 3519.7998368136546 24.543536710830274 0.30148727316799195
1.0134469299515334 13.033740645044789 3094.840804816167 25.666496968537245 0.3058869118527676
1.0394038874340046 13.040195790314522 2724.159895020374 26.83895804812129 0.31037042548620397
1.0655510201687133 13.046531844624175 2400.5362801576816 28.06407875252923 0.31494703297749593
1.0918750235344623 13.052652558031596 2117.9573785977514 29.343991564520376 0.31961772239317504
1.1183658419225244 13.058491912418965 1870.5128633020668 30.68129271121833 0.3243860961149192
1.1449902800143144 13.063953455329667 1653.7409396635437 32.0795435873689 0.3292613117726481
1.1717473719522906 13.068962739050583 1463.6729578606628 33.54050696862507 0.3342399170439965
1.1985971410535023 13.073425688994838 1296.7943161362127 35.06880550121702 0.33933603109207333
1.2255379366772332 13.077298053297904 1150.2551971701025 36.66656336358409 0.34454704127518165
1.2525274721160178 13.080471621557393 1021.2880901879171 38.338632608559436 0.34988618471258914
1.2795639244338823 13.082911165095544 907.7276572805918 40.08743618320664 0.35535115159277036
1.3066026655489564 13.084507451243292 807.7095500629342 41.918363977971765 0.36095602941405663
1.3336334587428549 13.085233691337315 719.348956423844 43.834752783598006 0.3667019606209434
1.3606384996635625 13.085038741200881 641.3735501002692 45.841542214115734 0.3725981120189261
1.3875650551082115 13.083794684399509 572.4642892386942 47.943932542566145 0.3786537226156874
1.4144169662379884 13.08151325091523 511.4192950315418 50.146521433143086 0.3848736558116357
1.4411442163145802 13.078094628919164 457.41101314996223 52.454818290632886 0.3912664075275226
1.4677282641726455 13.073491547155083 409.49722042664877 54.87508453700125 0.39784289082164476
1.4941339353563134 13.067638514418435 366.96365480794964 57.41350044456768 0.40461215062536665
1.5203432495532614 13.060512948136633 329.23292844956427 60.076683535748366 0.41158394063615217
1.546324312157409 13.052044226399486 295.6511883916132 62.87172793658339 0.4187687816533895
1.5720389843275142 13.042179049484528 265.78691774042056 65.80624749677992 0.42617802467359217
1.597461163770766 13.03087539949697 239.21118582332542 68.88842305845273 0.43382391930206027
1.622548227883772 13.01807473791881 215.50224124894405 72.12705430323332 0.4417196881062661
1.6472999776111599 13.003757038942942 194.34009876449622 75.53161666128587 0.4498796076118076
1.6716490589346253 12.98784878630439 175.45314614162194 79.11224899536114 0.45831878419375893
1.695588190394363 12.970323774051874 158.5630192150112 82.87869689500415 0.467048658280688
1.719051496795889 12.951097490715709 143.46804659851705 86.84388580162334 0.4760916356099863
1.7420580854178733 12.930229750033376 129.94883935396678 91.01962403014475 0.4854630258838265
1.7645435660525197 12.907613926426608 117.82576535043782 95.41948154351289 0.49518273347086245
1.786470832346671 12.88319781004592 106.95811302839182 100.05761570950523 0.5052702664535483
1.8078119288401175 12.856972153775155 97.21009437511229 104.95026981841406 0.515750278821841
1.8285373295573515 12.828892877310318 88.4462203885125 110.1137700197764 0.5266445785988629
1.8486126100888447 12.798936223287418 80.56786822723615 115.56596997143468 0.5379774615073779
1.868005061246103 12.767063550899744 73.47854263316484 121.32707075041013 0.5497783017707666
1.8866820871792542 12.733251410570961 67.09344735743323 127.41835089290902 0.5620764563857649
1.9046124350247233 12.697469769928663 61.33669945199885 133.86253125659607 0.5749023081193111
1.9217474876126848 12.659645307136898 56.14945670241592 140.68459549831093 0.5882897786810892
1.9380927961427816 12.619871949649175 51.45855650985419 147.91248954078375 0.6022782144960122
1.9535899302241602 12.578026681804538 47.22331852789693 155.57502791798794 0.6169045826935565
1.9682209317072654 12.534153823649719 43.393207387988966 163.70522144453727 0.6322144321885552
1.9819509524640209 12.488202835595866 39.928576067986185 172.33701800639798 0.6482500787067192
1.9947605290810229 12.440211239066109 36.791803871073164 181.94677142918965 0.6658263621386988
2.004615544708466 12.392193327269684 34.23438291652484 191.72670594386963 1.0058213592202185
2.0091755618510865 12.342288442708115 32.372457646278875 203.52900962362347 1.3388991862026227
