M[M_sun], R[km], Lambda[1], P_c[MeV/fm^3], rho_c[fm^-3]
0.24162668629717493 15.618656898711224 2160425.4255784233 3.5677272577965504 0.1711233750220791
0.253645101953885 15.277251716178531 1723139.696092803 3.7848409397266223 0.17388843896769815
0.2660419321550736 14.981222746399121 1383060.6688967024 4.011446334259798 0.17666720310521092
0.2788189304415408 14.723433270254786 1116355.2057048483 4.247798870610012 0.17945833372169914
0.29197421201383356 14.498339476615618 905788.0879229322 4.494524015338943 0.1822684021899507
0.30551087369645114 14.301142141551994 738566.4878875393 4.751778291319839 0.18509313273994848
0.3194288869566407 14.128062459272812 605038.7577530516 5.020242533391699 0.18793911222590215
0.33372824448090754 13.975866611335341 497639.97903616045 5.300142751199431 0.19080300181664284
0.3484113960819653 13.841939791475115 410949.5218678722 5.592205381568338 0.1936910538797812
0.36347529367898823 13.7238943394546 340626.6552266616 5.896600479464861 0.19659838254838635
0.3789298171528405 13.619936639300143 283245.6116045666 6.2141910310009365 0.1995326453435869
0.3947647774096413 13.52837393956966 236367.15436738005 6.545231864238973 0.20248997436778735
0.4109917039811587 13.447789531881144 197825.10064148554 6.890430622424765 0.20547416915542757
0.42760191711381074 13.376972625038206 166045.08216657912 7.25049021769967 0.20848826214591742
0.4445982918793066 13.31486191499261 139769.5172297787 7.625666031296467 0.21152774212353215
0.461980161597891 13.260504361632618 117945.85186835952 8.016914314761003 0.2145988823981458
0.47974874361858877 13.213100061752746 99774.67854568508 8.424936965937167 0.21770327757684704
0.4979076856506429 13.171958167071875 84624.0543369461 8.850170119281279 0.2208383264120935
0.5164494420635191 13.136340007221273 71922.17575220308 9.293496623958593 0.22400757072670835
0.5353698235030168 13.10579456498592 61259.3699008728 9.755797146016636 0.2272138661185395
0.5546784768224999 13.079780491350276 52291.12803935728 10.237879780409305 0.23045854102115162
0.5743634212504319 13.057820141081308 44716.16522681296 10.74021404853758 0.23373827056703894
0.5944226718223542 13.039489533580268 38316.57116443504 11.264053460092306 0.2370593506348687
0.6148614879516842 13.024479609193463 32891.77973433332 11.810331124438532 0.24042333470279365
0.6356690433444218 13.01243417005429 28283.832203203612 12.380026430871885 0.24383185641048397
0.6568416030802655 13.002996338164193 24168.644918353424 12.973818997101034 0.2472827588636471
0.6783756928990249 12.995965302360695 21020.888768867015 13.593054634795527 0.2507810386074945
0.7002671386706671 12.991054967252346 18165.89034502373 14.2389225320037 0.2543292311352346
0.7225023355877456 12.988009079173791 15723.33331590401 14.91261287781594 0.2579293220255591
0.7450943190376311 12.986650949435544 13628.986001251178 15.615141878918022 0.2615810706579913
0.7680179105909474 12.98674885118746 11831.921249796153 16.347803065617615 0.2652866430038179
0.7912658777586022 12.988135365609843 10286.228219929986 17.112200142408067 0.2690505991121444
0.814843884401596 12.990669314920952 8953.011284997367 17.90978881509303 0.27287537286166597
0.8387279483710883 12.994145970400208 7804.660947724946 18.741914120909822 0.27676186099479394
0.8629104424362394 12.998416455827138 6811.322266242364 19.60996172593 0.2807109099005664
0.8873956086431065 13.003364340391263 5952.940055779474 20.515998671701603 0.2847287032486857
0.9121544200299417 13.008868898148412 5209.122321754323 21.46181995656048 0.2888182561163696
0.9371765507212577 13.014757376640748 4563.286840707267 22.448883770599178 0.29297927849357186
0.9624641947412671 13.020967265838365 4002.8543413727202 23.479268410771642 0.2972159907022087
0.9879857420649282 13.027352083906585 3514.9885621361573 24.55537212625649 0.3015342896549448
1.0137310073734573 13.033812362912796 3090.4791691215596 25.67910630105297 0.3059355736953661
1.0396979307270053 13.04026804677786 2720.186549331916 26.85249543811641 0.31042156730793385
1.0658519308694219 13.046593688134791 2397.13999449554 28.078607562596016 0.31500078136354376
1.0921875593330013 13.05272426166453 2114.669688433089 29.35946030480398 0.3196734003603411
1.1186878794494493 13.0585548116032 1867.500821595854 30.697886048226675 0.32444463018643754
1.1453207635501845 13.064014801713775 1651.2744639786422 32.09720736714098 0.3293220027801327
1.1720884141916939 13.069021229372616 1461.363505230502 33.55944836794384 0.3343037515126408
1.1989450783778688 13.07348490866944 1294.775688112471 35.089113910796634 0.3394031854969308
1.2258930727252544 13.077351606021999 1148.3653087219238 36.68817985393496 0.3446167727268928
1.2528932336230474 13.080502385946373 1015.2248805882707 38.36174592054519 0.34995924087729363
1.2799370005700472 13.082947273243827 906.2363410126467 40.11210580507635 0.35542747116124707
1.3069892086461101 13.084552027118766 806.3532433720343 41.944631928600245 0.36103544140838356
1.334021744869463 13.085243445692292 718.140103039784 43.86291354212342 0.36678566895895276
1.3610326839209528 13.08503199704063 640.2809451157539 45.8715367790614 0.37268533213933447
1.3879718423296017 13.083782568984864 571.4826087338166 47.97588901724883 0.3787446810584088
1.4148164984059868 13.08145655138022 510.5916258093162 50.18079019492536 0.38496968065864523
1.4415490355977794 13.078014149217895 456.636961544655 52.491344943523615 0.3913666960310064
1.4681437232901737 13.073410326024097 408.79124446821453 54.914030800687186 0.3979477271591545
1.4945540915144653 13.067537614496484 366.33038601291764 57.45504113744203 0.4047218409414643
1.5207675465463373 13.060386090655015 328.6716325510881 60.121007747594874 0.411698814846234
1.5467517522066903 13.051891375857403 295.1249739328023 62.91904031826383 0.41888919542626735
1.5724689790367905 13.04200355752588 265.31433552599265 65.85676967995603 0.42630436161201574
1.597883159966222 13.030660857174388 238.77831102101018 68.94239521995266 0.4339565933426024
1.622991302896735 13.017849915756948 215.10629095914643 72.18473689047725 0.4418591461625707
1.6477336734387145 13.003487819115 193.9767221931051 75.59329229721423 0.45002633248807256
1.6720810469674716 12.987549139220299 175.14095766339696 79.17790257750568 0.4584719532497764
1.6960187459536453 12.969985498431784 158.27164234986714 82.94896889928759 0.46721014314186604
1.719497448679592 12.950765899227742 143.1949338981841 86.91913792510648 0.47626204464492644
1.742480534423172 12.929817237646958 129.70276610109062 91.09988759763706 0.4856415827775397
1.764961213730697 12.907154889869439 117.60500814454869 95.50552966326818 0.49537154225921703
1.7868732521417976 12.88267983992763 106.76227503046282 100.1495233029989 0.5054685990530096
1.8082242184415835 12.856441156531822 97.02918806014753 105.04851341577415 0.5159588993067619
1.8289370175124928 12.828305091527383 88.2810385298368 110.2190533345175 0.5268649980775799
1.8490089409842605 12.798312992372917 80.41864659244548 115.67892186850891 0.5382107811500302
1.8683829605054234 12.766363584090717 73.3427738001207 121.44808065691495 0.5500246335952269
1.8870580190499047 12.732532537570146 66.96934107086193 127.54797127918685 0.5623364049258737
1.9049803633604092 12.696700634710446 61.22121419203794 134.00128226025578 0.5751762456823396
1.9221188401701241 12.658868607872114 56.040394075132966 140.83362376149702 0.58858014241036
1.9384284705454122 12.618966232384736 51.36211196340327 148.07268738984214 0.602586363029016
1.9539215380313975 12.577105922944542 47.13727432675074 155.7468478654481 0.6172301986934128
1.9685340599215524 12.53316537619356 43.31628600202704 163.8899169190814 0.6325597669979238
1.9822437872259697 12.48714886978778 39.85466979782199 172.5358626748155 0.6486172236457258
1.9950302909499351 12.43905130842438 36.72565738652781 181.7236840768045 0.6654546892541776
2.0068599577119843 12.38887842435426 33.88228690393528 191.4955807782261 0.6831271722207153
2.0177018765478807 12.336588254652646 31.30982731186435 201.89762734587188 0.7016939588580885
2.027533797963083 12.282192792862157 28.974564951921362 212.97962890079427 0.7212171631157385
2.0363376009469514 12.225703989374367 26.855092069946483 224.7974930552819 0.7417683968396679
2.0440755609363026 12.167093605231209 24.928900578818237 237.4120574154213 0.7634236133904427
2.0507289833595093 12.106367914070605 23.175171159290603 250.89043893173215 0.7862661020281301
2.056295096102487 12.043603027643348 21.581808286123216 265.3059745262094 0.8103846516246211
2.0607351279345654 11.978736055772675 20.132462992415363 280.7400013851904 0.8358774782999466
2.064032943964494 11.911822871303569 18.811648091199928 297.28281283416055 0.8628532032168311
2.066186690090437 11.842903884090019 17.60962597893499 315.0347459788439 0.8914319725236125
2.0671715665822634 11.77199633152398 16.51540660576685 334.1050711634342 0.9217389549160998
