M[M_sun], R[km], Lambda[1], P_c[MeV/fm^3], rho_c[fm^-3]
0.24162668629717493 15.618656898711224 2160425.4255784233 3.5677272577965504 0.1711233750220791
0.2536450580213208 15.277258910819707 1723266.5059827622 3.784840925102909 0.17388843878542062
0.26604194222045174 14.981241345682383 1382990.862764064 4.011446303517546 0.17666720273370895
0.2788191066702627 14.723428881368653 1093873.9987703015 4.247798822708872 0.1794583331661181
0.2919742011047621 14.498336917582392 905769.1532315416 4.494523949021655 0.18226840145149228
0.30551091560718363 14.30116266322982 738632.5773914042 4.751778204334283 0.18509313180033846
0.31942888074416975 14.128065847362379 605028.7628056173 5.020242425096806 0.18793911110230085
0.333728313899706 13.97589785346524 497638.38061681244 5.30014261874368 0.19080300048303322
0.348411378426233 13.841935577436358 410945.17740880547 5.5922052246207254 0.19369105236126988
0.36347564285810574 13.723898280159085 340619.8574692427 5.896600294498856 0.19659838081114647
0.378929838903846 13.619957493437921 283246.677976661 6.214190815777717 0.1995326433810103
0.39476451385904887 13.528365109860749 236358.2968720039 6.545231618981707 0.20248997221721243
0.4109916872113948 13.447789612033967 197825.42411232434 6.890430342398137 0.20547416677060332
0.4276018387815446 13.376984988326079 166055.0381825818 7.250489900275404 0.20848825951994782
0.44459827391111667 13.314861823221511 139769.48364087046 7.625665677351594 0.21152773930590338
0.4619801220978814 13.260497174234379 117947.4244693889 8.0169139181211 0.2145988793298155
0.4797486884791854 13.213098435301845 99782.73894255365 8.424936523508615 0.21770327425040284
0.4979076649340707 13.17195820179425 84624.2475185213 8.850169632695172 0.22083832288900218
0.5164492392589018 13.136346949189628 71923.80967499071 9.293496085339362 0.22400756693479537
0.5353701056256356 13.105805479525161 61262.21173913401 9.755796551711535 0.2272138620496122
0.5546786824407831 13.079778058252446 52291.430191437714 10.237879132902611 0.23045853674842554
0.5743633297083014 13.057803473833967 44717.8129858574 10.740213337952163 0.23373826600486047
0.5944229679512713 13.039488563957043 38317.617636543335 11.264052682099495 0.23705934577395554
0.6148613952149926 13.024479560312804 32891.34620916535 11.810330274441315 0.24042332953339238
0.635668947936555 13.012421447046787 28283.661860882672 12.38002550398638 0.24383185092232612
0.656841658074769 13.00299681521833 24169.415006505893 12.97381799758378 0.24728275315081633
0.6783756681572557 12.99596511141729 21021.087538427368 13.593053548450964 0.25078103255901907
0.7002669858225934 12.99104323884831 18165.7328100147 14.238921353005741 0.2543292247391131
0.7225036606894182 12.988002532851224 15723.49934980408 14.91261159996412 0.25792931526907487
0.7450947491262778 12.98664975392476 13629.47957874965 15.61514050808312 0.2615810636511926
0.7680178414107577 12.986754929096287 11832.266274189282 16.347801583232638 0.26528663561450055
0.7912659387844727 12.988146627761918 10286.269389633833 17.11219854103157 0.26905059132519277
0.8148438163530436 12.990668016983541 8953.030604131412 17.90978708679008 0.27287536466099205
0.8387277743943659 12.994139655369098 7804.713544840166 18.741912273346845 0.276761852506198
0.8629104129136168 12.998425838481072 6811.385346806082 19.609959735079943 0.2807109009688778
0.8873955418246802 13.003364292356126 5953.029906929763 20.51599652798037 0.2847286938545669
0.9121543263538395 13.008857999538252 5208.982271344206 21.461817649727536 0.28881824623917896
0.9371764560430141 13.014760678837645 4563.383421721717 22.448881310265058 0.29297926827474463
0.9624641695173692 13.020965432078862 4002.834624368385 23.47926576605514 0.29721597996122917
0.9879861330103623 13.027351435273673 3514.990316620007 24.555369284706227 0.3015342783668145
1.013731359158388 13.033812669476944 3090.4801216022256 25.679103273669593 0.30593556201211064
1.0396977978949773 13.04027347130581 2720.233689265983 26.852492187882373 0.31042155502913493
1.065851860048384 13.046598321349636 2397.1081481014385 28.078604074293438 0.3150007684587957
1.092187579508699 13.052729854204616 2114.6911492514582 29.359456590797812 0.3196733869921993
1.1186871866370334 13.058556097942194 1867.4227212960006 30.697882064166397 0.32444461613240677
1.1453216182794224 13.064016691941704 1651.2892299421455 32.097203126031786 0.3293219882080992
1.1720883465756482 13.069021649603846 1461.3424579795815 33.55944382002765 0.3343037361856943
1.1989452340486633 13.073478414838732 1294.7962346633542 35.089109034603055 0.33940316937268056
1.2258941241367278 13.077343264737824 1148.4542125994014 36.68817466361654 0.344616755983729
1.2528920470130562 13.080510615560197 1019.6354348346921 38.36174039503386 0.34995922347798814
1.2799369259306903 13.082940293440968 906.2410859697197 40.11209988155493 0.35542745283585075
1.3069898488817366 13.084551064430409 806.3651378792645 41.94462562124019 0.3610354223402786
1.334021540715437 13.08524263128025 718.1795856568502 43.86290678019256 0.3667856488589972
1.361032276784311 13.085030002021938 640.2781466759639 45.87152957673101 0.37268531119593606
1.3879717897950135 13.083784644825844 571.4729606679128 47.97588134374854 0.3787446592171499
1.4148164265587593 13.081458727043065 510.591116123645 50.18078196609253 0.38496965760054885
1.441549151871126 13.078016950269065 456.6366901160427 52.49133617242418 0.3913666719488536
1.4681436665796135 13.073411086971214 408.7794935539401 54.91402144847425 0.3979477019846792
1.4945539837260968 13.06753772944326 366.3242613122892 57.45503116212191 0.4047218146011233
1.520767489596902 13.060386701885395 328.6702181966151 60.120997103745026 0.4116987872607724
1.5467516349538846 13.051890687625512 295.12833644878657 62.91902895672283 0.4188891665102422
1.5724693338114437 13.042002470802991 265.31835660079554 65.8567575474822 0.4263043312732714
1.5978830878937778 13.0306619577947 238.7790833990916 68.94238225884864 0.433956561481695
1.622991186138998 13.017850654778009 215.1052372680577 72.18472303817488 0.44185911267213185
1.647733633698227 13.003489528684725 193.9772792281577 75.59327748581657 0.4500262972521085
1.6720809072422858 12.987547245505873 175.13843484228408 79.17788681064458 0.4584719164658698
1.696018818245321 12.969985957093888 158.27167860949052 82.94895202309041 0.4672101043604141
1.7194974413242594 12.95076741442111 143.19561916466483 86.91911985267575 0.4762620037197626
1.742479656777593 12.929818099607461 129.70340914701322 91.09986832145101 0.4856415398951211
1.7649615363016509 12.907156294529369 117.60443428658084 95.50550899757911 0.49537149691408083
1.7868734613284403 12.882679409069416 106.76610364746583 100.14950122981169 0.5054685514200292
1.8082240643893983 12.856440538366275 97.03294733664445 105.04848982059714 0.515958849202354
1.8289368501925696 12.828304247215483 88.27887728115509 110.2190280924671 0.5268649453031671
1.8490103536833402 12.798311994492547 80.42055869611488 115.67889474008848 0.5382107251120748
1.8683828050992888 12.766362268104022 73.34036303020734 121.44805159275592 0.55002457443125
1.887057929180168 12.73253270750139 66.9693390407979 127.54794022660062 0.5623363427765808
1.9049797547910865 12.696700514537422 61.22064478457584 134.00124893415517 0.5751761798862693
1.9221187906248054 12.658869164047132 56.04084444187689 140.83358796640624 0.588580072667911
1.9384284103479537 12.61896666617115 51.36169965768663 148.07264891133784 0.6025862890136985
1.9539214363737214 12.577106284807854 47.13735502682518 155.74680659480507 0.617230120481413
1.9685336645883935 12.533165388324571 43.31657977082822 163.88987260612754 0.6325596842209577
1.982244835892679 12.48714877501861 39.85714905282539 172.53581491140176 0.6486171354558048
1.9950301977507572 12.439052383649337 36.725431565011924 181.7236326897403 0.6654545956519277
2.006859938285663 12.38887860919759 33.88242758079326 191.4955254337063 0.6831270727272083
2.01770142152052 12.336588854305461 31.310323003894855 201.89756767566428 0.7016938529493559
2.027533685099808 12.28219280364598 28.974796635977132 212.97956464878527 0.7212170507106928
2.0363374823390132 12.225703640370423 26.854441941821758 224.79742362655443 0.7417682768304596
2.0440755655375895 12.16709469917164 24.928992731305257 237.41198247163888 0.7634234856044092
2.0507289354965823 12.10636815473475 23.175195773908847 250.89035793126564 0.7862659657351972
2.05629509134379 12.043603777851931 21.58270326920904 265.3058868681782 0.8103845060225334
2.0607351876321394 11.978736549068756 20.132146922668177 280.73990640199304 0.8358773225053958
2.064033091265895 11.911822630788741 18.811362316057544 297.2827097829586 0.8628530362554192
2.0661863993139695 11.842904081711332 17.609843424642886 315.0346340318325 0.8914317933184656
2.0671715401175437 11.771996441815054 16.51536440636777 334.10494958202156 0.9217387628879704
