M[M_sun], R[km], Lambda[1], P_c[MeV/fm^3], rho_c[fm^-3]
0.24162668629717493 15.618656898711224 2160425.4255784233 3.5677272577965504 0.1711233750220791
0.25364393509568633 15.277292467236405 1723213.3894257166 3.7848184227689017 0.1738881583046827
0.26603981355854023 14.981267158802256 1382982.4311474026 4.0113989988895025 0.17666663108519634
0.2788148121559922 14.723522998703128 1116592.2267122911 4.247725115159904 0.17945747826962496
0.2919693266380102 14.498439561258209 905943.9355718123 4.494421904163866 0.18226726515831743
0.3055039433574446 14.30123768667759 738675.791723274 4.751644356989143 0.18509168599355943
0.3194215308490908 14.12812664137525 605127.5220056691 5.020075789055526 0.18793738218905695
0.3337186581330448 13.97593476449831 497691.12665112084 5.299938806608634 0.19080094843301879
0.34839927533182935 13.842041197850508 411014.2579555761 5.591963727261595 0.19368871580788663
0.3634613025340033 13.724008398495805 340667.02880305983 5.896315685959218 0.1965957077075126
0.37891493563625056 13.620008374261003 283298.1861500284 6.213859651524289 0.19952962356176673
0.39474739980252943 13.528479297922523 236404.39614965412 6.54485424258714 0.20248666313604263
0.41097172089783285 13.447880314628788 197878.09068607885 6.889999468141931 0.2054704972646281
0.42757891674580006 13.37707064748685 166086.92580039997 7.25000148445509 0.2084842189810366
0.4445739339042798 13.31494128644054 139805.0021671803 7.625121069657446 0.21152340387847637
0.46195493811707855 13.26058475582909 117983.30048861043 8.016303618654408 0.21459415817003472
0.4797193307522887 13.213163925329358 99812.52571209881 8.424255772734613 0.21769815595625447
0.4978763107443097 13.172025919316424 84649.5694843048 8.849420940449507 0.22083290203725198
0.5164142283872434 13.136416759687723 71941.1526683219 9.292667334612487 0.22400173247801158
0.5353329443836337 13.105845978309155 61279.51593802105 9.754882122747382 0.22720760138488816
0.5546374025537123 13.079838546576056 52301.17135493414 10.23687484478728 0.23045185961676534
0.5743210432730942 13.057843762696498 44732.51622231384 10.739120001252932 0.23373124644457807
0.5943777387194542 13.039519657765833 38330.015866634385 11.262855633770258 0.2370518665943323
0.6148140001985015 13.024506036205553 32904.01646926204 11.809022442110356 0.24041537573075009
0.635617665015925 13.012437107992183 28294.174052870418 12.37859937402146 0.24382340670098077
0.6567865544741106 13.003035420800284 24372.01143987365 12.972280119050861 0.24727396326775894
0.6783176027767761 12.99599467248815 21027.12823724274 13.591382081446154 0.2507717262785491
0.7002058150039374 12.99106408816917 18173.40001359286 14.237107334383186 0.2543193835995526
0.7224399037008316 12.988002764234201 15616.656119570727 14.91064549063663 0.2579189197079299
0.745027237719107 12.986649412973762 13635.163001055838 15.61303134067455 0.261570282986466
0.7679474097284212 12.986756058387561 11837.074311860111 16.345520792870055 0.26527526644658506
0.7911910832739649 12.98814290527274 10289.444508548902 17.109734679577578 0.2690386104012755
0.8147639419280397 12.990672872608677 8956.868366380853 17.90712794705487 0.2728627472330861
0.8386459307367554 12.994129201391367 7807.840703878369 18.73906965016909 0.27674879212350895
0.8628272937226819 12.998398283468553 6815.010878263782 19.60689666424766 0.280697158901831
0.8873025238466571 13.003341072041305 5955.7663067695 20.512698265275287 0.28471424035598947
0.9120626659430243 13.008838950448657 5211.533947332776 21.458268441209487 0.2888030495561093
0.9370828493664708 13.014733767288455 4565.628135840302 22.445095941445075 0.29296354600772856
0.9623595569589228 13.020929437858925 4004.624735411547 23.475196728901434 0.2971994543923192
0.9878834280419911 13.027333305696825 3516.809979147194 24.550997424363317 0.3015169110410917
1.0136262035901218 13.033787093130872 3092.070542768416 25.67444551407967 0.30591758682081927
1.0395894821122347 13.040244708420913 2721.652595705333 26.847491581569866 0.31040266363894314
1.0657402094292243 13.046569201551987 2398.571848955066 28.073237210794073 0.31498091409702045
1.0920700969034192 13.052697694789606 2115.898030881759 29.35374249255992 0.3196528197470171
1.1185688252919708 13.058533838434698 1868.758047142049 30.69175250392028 0.324422993711453
1.1452000525071664 13.063984698587728 1652.2724708351113 32.090678110883786 0.3292995688987388
1.1719616816283311 13.069005158206714 1462.1877939962696 33.55244680460789 0.3342801555223073
1.1988174109609793 13.073462364057164 1295.5429591805266 35.081606990570656 0.33937836214687417
1.225762932595511 13.07732466126261 1149.1777483116957 36.680189363092516 0.34459099664033643
1.2527576087460637 13.080491490419098 1020.2502035802879 38.353239428310985 0.34993245474873613
1.2797986828745147 13.082930942988687 906.7668167849794 40.10298661594865 0.3553992594366102
1.3068421014783358 13.08452043725574 806.821410141183 41.93492185728127 0.36100608639171694
1.333877113911968 13.085241626912783 718.6431011900678 43.85250371072623 0.366754725556472
1.3608863270653953 13.085034622680302 640.682833220079 45.86044900166056 0.37265309038881356
1.3878171729583366 13.083780314106214 571.8504026284952 47.96407592958188 0.378711057197561
1.414673873583883 13.081485008977236 510.86954995857195 50.168122247919335 0.38493418367509774
1.441396718664303 13.07803399640307 456.9212980218604 52.47784224918329 0.3913296226913702
1.467990951557269 13.073437945155737 409.04795404183136 54.89963356386278 0.39790897238690975
1.4943993257102646 13.067574936527755 366.5615045144278 57.43968471916794 0.40468129153657817
1.5206119052358937 13.060430487809327 328.8684830727695 60.10462223137565 0.41165634881798324
1.54659432975755 13.051947586182488 295.32174133762265 62.90155003308094 0.41884468125993757
1.5723098328283993 13.042069402774494 265.49308968881513 65.83809267517445 0.4262576574623791
1.5977342225049362 13.03074463381709 238.9459959018425 68.92244268672151 0.4339075461462467
1.6228211703251048 13.017924605857898 215.25978212282772 72.16341252355238 0.44180759066020237
1.6475729410492959 13.003589367607516 194.11724056698003 75.57049159037825 0.4499720901468481
1.671921936480232 12.98765556356256 175.24868163592276 79.15363111853446 0.4584153282136801
1.695859760577889 12.97011139178616 158.37955122417878 82.92298985208632 0.4671504433670608
1.7193398941178448 12.950903335584375 143.2932681876591 86.89131753951004 0.4761990451594406
1.742325787064062 12.929965284757184 129.79134829054908 91.07021429425322 0.485575570599861
1.7648053694038122 12.907321607283627 117.69083489253386 95.47371755062095 0.49530173938076943
1.7867332531214681 12.882886805775353 106.83924004306652 100.11554468020414 0.5053952746591392
1.8080738418462294 12.856636841304239 97.0957864446375 105.01219206485182 0.5158817708419458
1.8287827091341837 12.82850633100162 88.34251844416346 110.18019704303828 0.526783759908172
1.8488627714554613 12.798544995800821 80.46966593039015 115.6371620281856 0.5381245197301352
1.8682501427999088 12.766640732731645 73.3881517127262 121.40334128118624 0.5499335606213954
1.8869203204446787 12.732795700975007 67.01606272453165 127.5001279877727 0.5622405823626454
1.9048440244302558 12.696985596219262 61.2614308837827 133.949982847151 0.5750749647125444
1.921987456780467 12.659173440988898 56.081261513021154 140.77852409398096 0.5884727873046941
1.9383029454043332 12.619291204589375 51.39736629485163 148.0134574590801 0.6024724313103224
1.9538003676081368 12.57745237944977 47.1661409124914 155.68332033023387 0.6171098076549859
1.9684183434631142 12.533530351477173 43.343327715473684 163.8217067533079 0.6324323498413928
1.982135110212322 12.487535128895022 39.88356340086189 172.46234173580342 0.6484814752704533
1.9949244491271412 12.439467043687362 36.74840422092901 181.64458581376905 0.665310610671299
2.0067645588366982 12.38931204383355 33.90768236868501 191.41039146486264 0.6829740263703896
2.0176135930786208 12.33704513878924 31.33143926573991 201.80578027751372 0.701530939371719
2.0274520561574687 12.282665703946877 28.995388280028642 212.88072991269007 0.7210441452529887
2.0362640232171683 12.22620739890255 26.871803717525385 224.6906266041855 0.7415836756348184
2.044011956827536 12.167619868642298 24.944626229541598 237.29670280684812 0.7632269231861706
2.0506734194084157 12.106921543056568 23.19002613416543 250.76576263289488 0.786056319305203
2.0562502244349603 12.04418256387053 21.59593586086571 265.1708610157574 0.8101599200036826
2.060698768829132 11.979340212739434 20.143961127444385 280.5938049211177 0.8356376820719384
2.064007172247083 11.91244997791363 18.82303916413821 297.12419945793505 0.8625962211268242
2.0661709520027096 11.843559349934083 17.620545489977456 314.8624418120596 0.8911561474422123
2.0671669412083187 11.772676710770284 16.524600309068173 333.9179396013513 0.9214433955617536
