M[M_sun], R[km], Lambda[1], P_c[MeV/fm^3], rho_c[fm^-3]
0.24162668629717493 15.618656898711224 2160425.4255784233 3.5677272577965504 0.1711233750220791
0.25363727888285276 15.277449427659883 1723358.9029894879 3.7847103911965267 0.17388681174324921
0.2660265985897041 14.981572683813042 1383347.4738523315 4.011171899411307 0.1766638867220273
0.27879561344851644 14.723883668223555 1116745.671444165 4.247371269225274 0.17945337419001772
0.2919436182665138 14.49882797859702 906295.1745781793 4.493932031322446 0.18226181031053468
0.30547162809750694 14.301652926030473 739068.536689698 4.751001829287224 0.18508474546809617
0.3193787270790911 14.128645927206449 605402.1623394163 5.019275878468784 0.18792908280798237
0.33366826983197967 13.976524720198558 498035.4996566256 5.298960460198522 0.19079109810803924
0.3483412808791232 13.842522551706688 411292.508165281 5.590804507478869 0.1936775000375984
0.36339450762170505 13.724489517794039 340932.3283205455 5.894949557108019 0.19658287673623845
0.37883930024265194 13.620479907368152 283556.0292108899 6.212270089061812 0.19951512866606674
0.3946597063831976 13.528943396618814 236638.75707769193 6.543042901999541 0.20247078012609065
0.41087621811451247 13.448317589378115 198076.9430609157 6.887931391959877 0.20545288466002723
0.42747250205225906 13.377484123089927 166271.3758607743 7.247657275267389 0.2084648259391961
0.44445590498549803 13.315352260678127 139964.746477112 7.6225072113210555 0.2115025958854133
0.4618260626799864 13.260955072758208 118129.97844231279 8.013374532992849 0.2145714993243785
0.47957928957721807 13.213509747417998 99946.71375745778 8.420988630235161 0.21767359161204003
0.4977232511283111 13.172346022923051 84762.12560417944 8.845827791432857 0.22080688610313698
0.5162494871876471 13.136705897684452 72048.01370518074 9.28869004891469 0.22397373213874425
0.5351542724124384 13.106133310122505 61370.42385880012 9.750493746652205 0.22717755623923774
0.5544483440697802 13.080070583466634 52386.618504523634 10.232046787349404 0.2304197066376604
0.574114701328625 13.058071891357075 44801.68055466477 10.733873242293274 0.23369756062681457
0.5941631616821613 13.03971275907906 38393.270133576625 11.257111295882117 0.23701597586725595
0.6145816723707577 13.024660740807624 32958.375570332486 11.80274660766058 0.24037720818629688
0.6353672878187533 13.012577481895486 28345.131703121835 12.371756010072918 0.2437828866352435
0.6565212350505327 13.00311820167394 24417.222906526786 12.964900650278448 0.24723178525034942
0.678043598559676 12.996052109571345 21069.76611147788 13.583361755175073 0.2507270712506457
0.6999158127219077 12.991119632012824 18208.956327664833 14.228403169183409 0.25427216307853684
0.7221338485074662 12.988039258878441 15761.012891937105 14.901211744367911 0.2578690399353296
0.7447042773875558 12.986662311973973 13662.220288392013 15.602911346747407 0.26151855629036774
0.767608659811723 12.986749419228165 11860.775323003705 16.33457755822304 0.2652207171665277
0.7908375215404835 12.988112107547506 10311.268255428802 17.097913311472375 0.268981127091231
0.8143955612017906 12.990615040471315 8977.019277412483 17.894369914642677 0.27280221128153326
0.8382604177834924 12.994058955729558 7824.740408336911 18.72543152892173 0.2766861320129308
0.8624228121896361 12.998333134521037 6830.2974989949635 19.592201199268676 0.2806312296184151
0.8868837778071091 13.003248556762351 5969.822881620659 20.4968747661762 0.28464489932946496
0.9116234825056888 13.008742132288939 5223.676356102987 21.44124137851418 0.2887301446044638
0.9366276649576526 13.014623286002355 4577.139179034974 22.426936224713096 0.2928881208829987
0.9618888159656961 13.020820766602055 4015.002412451352 23.45567656908782 0.2971201772233115
0.9873968099418405 13.02720436751106 3525.473294319392 24.530024993667258 0.3014335975300166
1.0131228255871363 13.033664256886876 3099.970025255525 25.652101968621803 0.30583135877577344
1.0390675899272914 13.040111613113055 2728.679515989539 26.82350389714035 0.3103120424866199
1.0652033747733824 13.046454954233488 2404.366498315415 28.047493166966433 0.3148856756845338
1.0915163115395223 13.052573230433387 2121.3747948136333 29.32633329843739 0.3195541634775069
1.117997628110433 13.058410550998614 1873.6875332370657 30.66235108668146 0.3243192783069787
1.144611653678461 13.063872325714453 1656.6635369260487 32.05924617802192 0.3291911647158794
1.1713595272265789 13.068901026579915 1466.1979871703163 33.51888586206764 0.3341670516856686
1.1982037973040172 13.073374961279136 1299.1254481192047 35.045624519175774 0.33925937786884136
1.2251301770076846 13.077244650444912 1152.3704935042194 36.641889737065455 0.34446744797542783
1.2521111140668237 13.080430103703206 1023.1568918896911 38.31218266703128 0.3498023970962316
1.279138703411207 13.082880493256758 909.5006471734299 40.059278834604434 0.35526404216295754
1.3061684153000677 13.084486531404053 809.1471397211573 41.88838291914445 0.36086539213111113
1.3331919426293384 13.085224411759246 720.7510111097087 43.80261214315415 0.36660642201562904
1.3601880171865788 13.085052510052622 642.6281600457705 45.807309292725286 0.37249856733371356
1.3871083255710002 13.083826920490399 573.515828784531 47.90746123658567 0.37854991350567324
1.4139443156232558 13.08154598894832 512.4441568462238 50.10741215688502 0.38476406730962925
1.4398951398450124 13.077719732701079 459.59636212374164 52.440768418323 0.45610742459793285
1.4630005787196287 13.069897465145129 416.2574858273684 54.97687926830629 0.5450434661355339
1.4835940995884855 13.057119930388037 379.80315272191535 57.725118477482916 0.630861769802373
1.5020372510357618 13.03919917698932 348.4465893714884 60.691866742127075 0.7138598784200973
1.5186563864967597 13.016180804804732 320.9408291549288 63.88431264370032 0.7943787173081321
1.5336968001437952 12.988237822779519 296.5388180354366 67.31069735861189 0.8727798187782958
1.5474345754503327 12.95568521860877 274.53977871316664 70.97891379632456 0.949168620894402
1.5600169001418032 12.918646432984728 254.5643911264913 74.89991667142618 1.0240972197627949
1.5716457956785874 12.877481545922583 236.25292897843096 79.08291249883035 1.097655348682095
1.5824480849275553 12.832410244194538 219.35439448468253 83.54057984268745 1.1702555447846006
1.592541711277246 12.783699435633508 203.69482372420111 88.28586515752038 1.2421636676291892
1.60205640791294 12.731670472987801 189.1356117447865 93.33298916255112 1.3136358423009795
1.6110072613768904 12.676363976319392 175.5895894424882 98.69784291888394 1.3849177289173407
1.6194614407950323 12.617973202488656 162.9276263358397 104.39580501338314 1.456076233198912
1.6275386004317298 12.55691503540197 151.09760836595214 110.44755159303477 1.5270214126806414
1.6352598063884691 12.49337302670604 140.0364258632149 116.87126889459795 1.598971914003677
1.642640902375474 12.427459229241334 129.71020924006856 123.69126702363494 1.6724422485515344
1.6497077231927264 12.359386233913783 120.09484715774138 130.93197686744787 1.747650297472699
1.6564657462028733 12.289316706800227 111.11745304790276 138.62052206841554 1.824838855288865
1.6629200949210807 12.217417379505402 102.77627599786068 146.78636480970945 1.9042595518746412
1.6690568887413353 12.143734165316024 95.01464676443105 155.4604833150979 1.9861531441375853
1.6748846889777673 12.068507349656883 87.81953193326616 164.67887242343338 2.070823134444894
1.6803852921510578 11.991809809601552 81.14800338701161 174.47919408627092 2.158557995685888
1.6855430274165362 11.913736003737768 74.97384595408828 184.9026627062022 2.2496728849059227
1.6903494324059738 11.834418222751967 69.26620665504531 195.99502111027942 2.3445280155154222
1.6947549998467661 11.753859200061475 64.0029857933232 207.80405956921828 2.4434985961268527
1.6987675443084138 11.672242134502456 59.15167698384284 220.3852017632565 2.5471045288383958
1.7023440164425192 11.589573137453945 54.68410456022107 233.79677769390477 2.6560544574214497
1.7054647388528517 11.50592771930492 50.576110595967926 248.10385188192626 2.7717678598958306
1.7081068011117855 11.421470969081737 46.80643970176202 263.3777751373001 2.898726619136498
1.7102086388829547 11.336016444607734 43.344163626333064 279.70154606889554 3.064875924715275
1.7117819861856154 11.24996051438979 40.173463900402474 297.15771503599876 3.1704396384677116
1.7127767704204804 11.16274581917998 37.25879792432287 315.81844523462877 3.2672426939449446
1.7132396410128365 11.074890833287917 34.58043309484545 335.7894841748282 3.3699416778021902
