M[M_sun], R[km], Lambda[1], P_c[MeV/fm^3], rho_c[fm^-3]
0.24162668629717493 15.618656898711224 2160425.4255784233 3.5677272577965504 0.1711233750220791
0.2536447844848777 15.277294655235954 1723196.9298181464 3.7848449554876242 0.1738884890222218
0.26604254103362684 14.981207849964369 1382942.6045638833 4.011454776274107 0.1766673051219717
0.2788194877726606 14.723429993551267 1116385.9785282712 4.247812024569784 0.1794584862878099
0.29197497802382605 14.498327790767485 905841.1442121197 4.494542226502671 0.1822686049754854
0.3055123419576814 14.301140296336008 738592.5264459508 4.751802178143195 0.18509339076322942
0.3194304307392057 14.128041377893966 605035.7521570411 5.020272271923737 0.18793942077465006
0.33372999310131424 13.975844048744401 497603.26914437587 5.300179124493751 0.19080336803536244
0.3484135597570887 13.841921454572285 410943.00453377154 5.592248480535168 0.19369147087414137
0.3634789601717197 13.723862822930244 340611.5006998918 5.896651272523453 0.1965988596075416
0.37893317299096674 13.61991247825482 283252.0160750067 6.21425013295512 0.19953318428224567
0.39476768855043776 13.528356293490358 236361.58007325116 6.545299213820459 0.20249056493263215
0.4109952432582157 13.447793707463397 197825.4705455684 6.890507519997111 0.20547482404742248
0.42760504603014626 13.376969225962569 166044.99179706268 7.250577385022199 0.20848898325883763
0.44460343396919255 13.314828387218329 139764.94164312925 7.62576322753497 0.21152851586808763
0.4619849346527647 13.260480920075494 117942.48588999246 8.017023235491536 0.21459972498805513
0.4797539024978663 13.213105219701449 99783.49619379426 8.4250584607006 0.21770419104762148
0.4979141824323009 13.171910241159221 84619.11976711689 8.850303740179355 0.2208392938844874
0.5164558338996678 13.136332074509003 71920.02419779987 9.29364453371092 0.22400861202058583
0.5353756064209063 13.105791967967038 61257.989930477 9.755960347721691 0.2272149834838
0.5546860533351068 13.079767962635158 52287.23872565103 10.23805759185954 0.23045971435207038
0.5743709509517717 13.057810317134777 44714.90160723436 10.740409182128644 0.23373952338513843
0.5944309069148747 13.039483651201554 38315.44425824938 11.264267104537264 0.23706068548922696
0.614870934855193 13.024469722640937 32889.37546362494 11.81056454214455 0.24042475427189508
0.6356793417812224 13.012396968561868 28281.44371924199 12.38028096301731 0.24383336351420407
0.6568513077657485 13.002993471653602 24361.224141732477 12.97409347481431 0.2472843276657013
0.6783863725153533 12.995957816825259 21019.58656043247 13.593352956366669 0.2507826995820775
0.700277620052028 12.991063301529252 18164.489958070775 14.239246297370233 0.2543309875781494
0.7225148465324007 12.98799903387125 15722.406544470365 14.912963789730432 0.2579311774291283
0.7451045999918838 12.986660204640163 13627.968120843687 15.61551832518345 0.26158299480159347
0.7680290957441083 12.986759966588584 11831.429453229086 16.34821014500502 0.26528867219246505
0.7912789940606881 12.988137829069839 10285.337605757708 17.112639898468917 0.2690527374969544
0.8148552002947176 12.99068274781587 8952.240868484772 17.910263426884814 0.2728776248606816
0.8387421255732975 12.994139534758503 7804.2145637758795 18.742421483147 0.2767641920617575
0.8629255568793007 12.998426160755562 6810.812039839154 19.61050843680141 0.28071336264745395
0.8874111055442571 13.003368690001722 5952.408408711021 20.51658736317714 0.2847312829860096
0.9121688611964951 13.008866997515257 5208.471322462585 21.462453440869222 0.2888209685127308
0.9371941649573339 13.014768812377671 4562.792969831179 22.449559408560564 0.29298208470901355
0.9624806397716035 13.020968090200276 4002.473065319912 23.4799946828708 0.29721894030899987
0.9880037573993942 13.027356369209368 3514.7534817289843 24.55615245186948 0.3015373895181672
1.0137500017642223 13.033814730415479 3090.497601735558 25.679937659225175 0.30593878206666325
1.0397173666862223 13.040276776751195 2719.988641425232 26.85338799451984 0.3104249392253038
1.0658713281589274 13.046604824213041 2396.8756506222603 28.079565496350437 0.3150043251770429
1.0922082734807805 13.05273808904314 2114.548058106879 29.360480220291294 0.3196770714298641
1.118709394215764 13.058559778503307 1867.354439239192 30.69898012490004 0.3244484896127972
1.1453436991213737 13.064022728119536 1651.092028592607 32.09837203356222 0.329326004459241
1.1721091494518896 13.069027618325231 1461.1906045773226 33.56069728862853 0.3343079605041173
1.198968972662473 13.073481151018829 1294.6451072075952 35.090452981962365 0.33940761344225284
1.2259180826205636 13.077346208129379 1148.3872408961204 36.68960518898674 0.3446213706371327
1.2529163738789906 13.080509217058193 1019.5592682182743 38.363263305210225 0.3499640189761374
1.279961207054583 13.082949496339252 906.1557684387819 40.11373249021604 0.35543250358162887
1.3070147007628217 13.084548870530423 806.2931276248462 41.946364022460536 0.3610406777905343
1.3340470974384333 13.085242145358437 718.1228987493129 43.86477046921617 0.3667911887066044
1.3610573641984536 13.085029213569737 640.2170002406755 45.873514647685795 0.37269108351262104
1.387997800735279 13.083782320142815 571.4146495573102 47.97799627756324 0.37875067900150206
1.4148422085367323 13.081451099157121 510.48696770939586 50.18304995979587 0.3849760127688437
1.4415748424832597 13.078009009157192 456.56069598807505 52.49375362482141 0.39137330936739523
1.4681715274072549 13.073404979445225 408.75173433430916 54.916599066553694 0.3979546404689746
1.4945830316762614 13.067529885480178 366.2894472921697 57.45778052028861 0.4047290744214465
1.5207954978881542 13.06037641828139 328.63462589552654 60.123930721496585 0.41170639026165734
1.5467799472809975 13.051880652079223 295.09429442188963 62.92216038407771 0.4188971362418199
1.572497505361566 13.04199158076198 265.28685607672276 65.86010145902273 0.42631269313572134
1.5979112940295992 13.030648063434873 238.7531328328099 68.94595455734819 0.4339653428842326
1.6230197840503242 13.017833985624224 215.07995380319483 72.18854096889653 0.44186834320812174
1.6477622369014777 13.003472901227425 193.95125728733734 75.59735976270595 0.4500360088920852
1.6721102175157232 12.987527543009069 175.119575364004 79.1822324326903 0.45848205475238535
1.696047061373264 12.969965088423697 158.2505087082028 82.95360340126966 0.46722079321392296
1.719526717294501 12.950740653259187 143.18047042393866 86.92410093820925 0.47627328342775527
1.742507821824912 12.929792918045045 129.68876306803463 91.10518118741041 0.4856533590662851
1.7649892919370476 12.907127594966745 117.5898538393012 95.51120484072845 0.49538399486577045
1.7868998142989743 12.88264651534449 106.74821825501442 100.15558501017944 0.5054816799541254
1.808251311441361 12.856405670696512 97.01917225678702 105.05499309482751 0.5159726589188136
1.828954952585592 12.82825573606616 88.27265131507855 110.22598528175438 0.5268794909353004
1.8490358525955064 12.798272336200872 80.40990040944395 115.68637185624547 0.5382261702539007
1.8684069564382104 12.766319680604116 73.33198735804575 121.45606224298673 0.5500408811795441
1.8870822626158965 12.732485331777303 66.95776476093043 127.55649893302737 0.5623534723498692
1.8989422173806694 12.700477134081718 62.6923149097343 134.9680347825037 1.4617533911027514
