M[M_sun], R[km], Lambda[1], P_c[MeV/fm^3], rho_c[fm^-3]
0.24162668629717493 15.618656898711224 2160425.4255784233 3.5677272577965504 0.1711233750220791
0.25364338972013384 15.277289453091306 1723203.8677365172 3.7848095038155414 0.17388804713423173
0.26603822827322837 14.981324067854873 1383011.4260234179 4.011380249488394 0.17666640450974908
0.2788127087892989 14.723564962898626 1116445.908850932 4.2476959010090765 0.17945713942950015
0.2919666729268725 14.498471892369027 905957.0976045069 4.4943814586819375 0.18226681478848925
0.30550126336145367 14.301287591830665 738724.8344057545 4.751591306888843 0.18509111295122857
0.31941691961191254 14.128190442585597 605156.3326965756 5.020009743578833 0.18793669694174506
0.33371490359787653 13.975973908470943 497683.475777351 5.2998580269901385 0.19080013511629818
0.34839435353558557 13.842046011929085 411027.4784895931 5.591868011837975 0.19368778973483272
0.3634563269252369 13.724043137993164 340678.16735654045 5.896202884390106 0.19659464825130415
0.3789080438827236 13.62006798413682 283327.1302855914 6.213728398790651 0.19952842669487453
0.39473970320823976 13.528502384431667 236425.2507676023 6.544704674986172 0.20248535163023806
0.41096366349507885 13.447922566852721 197882.66006922326 6.889828698337832 0.2054690429173156
0.42757017928688174 13.377107328034592 166100.6024447656 7.2498079100173145 0.20848261758932177
0.4445644105233465 13.314969784945287 139817.17252633072 7.62490522562696 0.21152168562120643
0.46194468948355816 13.260604529349258 117996.17880140286 8.016061740276722 0.21459228704523303
0.4797087487211278 13.213181398151443 99826.38080531162 8.423985973944534 0.21769612744652486
0.49786429339624183 13.172024126555502 84658.58697449925 8.849124216054197 0.22083075362584936
0.5164004085168556 13.136443325962283 71948.17038888321 9.292338882796544 0.22399942015675078
0.5353180155256583 13.105889203582855 61288.30772202623 9.754519716603156 0.22720512016059202
0.5546236779356067 13.079844385792251 52310.37871600054 10.236476122094457 0.23044920427917337
0.5743039498531538 13.057892082010303 44738.621840632346 10.738686694469028 0.23372846448080378
0.5943591996348656 13.039540592733978 38334.451735163246 11.262381226751243 0.2370489024906925
0.6147946926014339 13.02451860324498 32629.672330889956 11.808504132392361 0.240412223542884
0.6355947518205701 13.012442137495912 28298.000758110506 12.378034184306571 0.24382006017074015
0.6567654789075222 13.003034958653439 24375.779761089692 12.971670644772697 0.24727047976271166
0.6782961068934681 12.995982221359057 21032.545144400847 13.59071966817113 0.2507680381389049
0.7001826696861099 12.991070239074334 18040.627222194315 14.236388430497325 0.2543154835108857
0.7224140938245505 12.988010484783619 15733.070435297988 14.909866316333776 0.25791479991967875
0.7450007509696971 12.98664694419672 13540.955005968917 15.612195475473305 0.26156601059800855
0.7679193804568726 12.986760495147136 11838.440752035116 16.34461691775547 0.26527076085583856
0.7911625227720187 12.988129322730748 10291.587337825817 17.108758258368223 0.26903386239557836
0.8147348999198224 12.990664159354921 8958.451800854284 17.90607414283363 0.27285774700740695
0.838615255628196 12.994115209753442 7809.374148969577 18.737943136898085 0.2767436163779023
0.8627935715460139 12.998387988356086 6816.179136450305 19.605682795021547 0.2806917130361607
0.8872675525602404 13.003333395351277 5956.710807343626 20.51139119801607 0.2847085125845956
0.9120266783478622 13.00882902260329 5212.50265120911 21.456861933797917 0.2887970272986792
0.9370442398158217 13.014725852877238 4566.417418222007 22.44359585274244 0.2929573154932788
0.9623215887891138 13.020920808826196 4005.7698980170235 23.473584234592785 0.29719290557381306
0.987843796727113 13.02732647900541 3517.686857081769 24.54926493493318 0.3015100286830371
1.0135848676729073 13.033779555132414 3077.515522395488 25.672599735576433 0.3059104636060984
1.039545945352797 13.040227512744458 2722.231786409848 26.845509949935796 0.31039517739146116
1.0656958209825365 13.046555689011377 2399.03278935381 28.071110450533283 0.31497304628602957
1.092026544103916 13.052683948798334 2116.3743818006506 29.35147814104537 0.31964466947188364
1.1185215857895277 13.058522707905842 1869.1830091619665 30.689323528351938 0.32441442534274195
1.1451507202399058 13.063982195878944 1652.581393661921 32.0880924386524 0.32929068478363027
1.1719121270094597 13.068992383661639 1462.613753384687 33.549674107597674 0.3342708112475058
1.1987658462269475 13.073450286385366 1295.8295480177817 35.07863418299773 0.33936853187816046
1.2257106403041997 13.0773203475464 1149.4282936206907 36.677025071469416 0.34458078912538215
1.2527042822096779 13.080484164365394 1020.484892241048 38.349847680131646 0.34992171160074176
1.2797438205115323 13.082930847426987 907.0074813553879 40.099375388850305 0.355388087506401
1.3067865160135426 13.08451831617593 807.0168154734853 41.93107665711483 0.3609944617690685
1.3338220737527886 13.08523504326535 718.8036280220039 43.84838142894052 0.36674247200311766
1.3608281594752047 13.08503572298872 640.839718437089 45.85605827539125 0.3726403227532574
1.3877587465861205 13.083781961327867 571.9997996593298 47.9593980058524 0.3786977423165602
1.4146144920841008 13.081496179283661 510.9986537561652 50.16310583500391 0.3849201271332886
1.4413365987414088 13.078043360134998 457.03816693343686 52.47249531007626 0.3913149419999073
1.4679291275849737 13.073452557895482 409.15701341522066 54.89393242437962 0.3978936259447487
1.4943382946624408 13.067591879972463 366.6629911367586 57.43360378755635 0.40466523452682485
1.5205488055749332 13.060449689922834 328.9566226677656 60.09813382663729 0.41163953294381517
1.5465313498067652 13.051969970164293 295.3922281424792 62.89462419616444 0.41882705445435664
1.572247782769452 13.042094606091334 265.562133733571 65.83069696113016 0.42623916356898267
1.5976707814949467 13.030774024501195 239.00626807085936 68.91454193568111 0.4338881245678864
1.622757484653429 13.01796217685115 215.3128943857986 72.15496860812735 0.4417871759720089
1.647509700465491 13.003629085290566 194.1708222594858 75.5614631367807 0.44995061166969863
1.6718586436650653 12.987701496733708 175.29865640184263 79.1440203378852 0.4583929063723798
1.695796370235124 12.970161367804705 158.42340203603737 82.91270298331325 0.4671268041725805
1.719261553155785 12.950922118945721 143.33858902323277 86.88030163266957 0.47617409955037626
1.7422640261265505 12.930025737361337 129.82555380718145 91.05846476390192 0.48554943221967606
1.7647441573044877 12.907387665581771 117.72277213497624 95.46112121852072 0.49527410021551727
1.7866718031343 12.882961335627492 106.8652000347738 100.10209057865477 0.5053662412916854
1.808010818757393 12.856715012389797 97.12306399824436 104.99781043283853 0.5158512314162205
1.8287236458942684 12.82859196853228 88.36347424662397 110.16481178848179 0.5267515934334914
1.8488051351589727 12.798635384205276 80.4958249171468 115.62062723313413 0.538090364549278
1.8681931768610125 12.766737654649424 73.40747658541788 121.38562686345074 0.5498975005584957
1.8868655180544562 12.73290110461376 67.03362296999215 127.48113450001689 0.5622024625842712
1.9047902241554284 12.697098317428198 61.28096001129506 133.92967128119955 0.5750348633746709
1.9219353960396723 12.65929507931259 56.09583445263489 140.75670801723655 0.5884302812909613
1.9382521923480465 12.619417715843642 51.41215581080917 147.99000623828744 0.6024273217203567
1.953749100016026 12.577593578887901 47.176315072403476 155.65816772006303 0.6170621409409004
1.968371823162623 12.533676343016142 43.35495765116984 163.79470034339457 0.6323819016432359
1.9820922270415298 12.487691314645755 39.89452264660197 172.43323288901658 0.6484277289675568
1.9948861301636918 12.43962879508997 36.759899858282296 181.61326901640027 0.6652535666906598
2.0067197290669103 12.38946767353702 33.91729542713865 191.37666336945964 0.682913392968776
2.017578938570024 12.337224919782416 31.339550943302363 201.7694165693699 0.7014663973767477
2.0274205365688993 12.282855408907736 29.001929852698833 212.84157456682834 0.7209756453179935
2.0362357168195233 12.226405751860034 26.879338950650215 224.6483172425538 0.7415105428959949
2.0439860925741966 12.167828200964568 24.950888761570436 237.25103332678285 0.7631490525273894
2.050651967155024 12.10714085656094 23.195852432104598 250.71634696983904 0.7859730831965408
2.0562252933549052 12.044388817928558 21.60089571912384 265.11734385848393 0.8100708643446983
2.060684969094311 11.979578782464168 20.148771796323643 280.53592671607714 0.8355427483446377
2.063997123545558 11.912699349780738 18.827591646279686 297.06140615463545 0.8624944847241048
2.06616576327851 11.843816767183666 17.624668002232863 314.79422923572025 0.8910469525238741
2.067166161388466 11.77294263552753 16.52887709460036 333.843857901591 0.9213263894345866
