M[M_sun], R[km], Lambda[1], P_c[MeV/fm^3], rho_c[fm^-3]
0.24162668629717493 15.618656898711224 2160425.4255784233 3.5677272577965504 0.1711233750220791
0.2536355476070335 15.277481454589497 1723399.3044852058 3.7846627168696956 0.1738862175057641
0.26602294926601705 14.98160752146541 1383438.835504468 4.011071683349238 0.17666267567006064
0.2787868259798068 14.724051327446498 1116935.8852681075 4.247215125993417 0.179451563163831
0.2919315920573061 14.498999500208278 906453.0066141593 4.493715868807294 0.18225940329075974
0.3054556106257871 14.301882458191542 739189.3880063784 4.750718313804974 0.18508168295979044
0.3193611170056769 14.128830798153233 605532.4068373732 5.018922927052989 0.18792542080081678
0.3336479941940129 13.976683324626732 498160.5676698299 5.2985287877359895 0.19078675188261568
0.34831573578415015 13.842742093252102 411443.16078729916 5.590293041824 0.1936725514666882
0.363364747850703 13.724703331695768 341056.15038956003 5.894346815974762 0.1965772156639613
0.37880499866002587 13.620688236726004 283678.12865461106 6.211568786660445 0.19950873363258934
0.39462311328067123 13.529128145755605 236750.15163533445 6.542243772065927 0.2024637728361445
0.4108326269498591 13.448549262957297 198170.88393750155 6.887019018595135 0.20544511450559047
0.42742497519646216 13.37768413680457 166356.4856727347 7.246623106823531 0.20845627052869473
0.4444038693003728 13.315525976020137 140048.62983409295 7.621354111290707 0.21149341646773084
0.4617695119351249 13.261115498007744 118190.20840637296 8.012082403479123 0.214561503657948
0.47951745432721055 13.21366602605385 100002.50776199265 8.419547407391766 0.2176627556310503
0.49765494669985544 13.172471412939814 84813.53201809447 8.844242793503858 0.22079541004091352
0.516175496765283 13.136817207005643 72096.90736307116 9.286935645393358 0.22396138102857976
0.535076778930405 13.106220743588448 61412.02561940452 9.748558056645514 0.22716430348083153
0.5543634521374656 13.080166421352027 52419.31914377016 10.229917208672031 0.23040552447442045
0.5740244409510473 13.058136733986336 44835.45868521887 10.73155903006755 0.23368270266747218
0.5940669050201726 13.039793013792153 38421.10492921149 11.254577676110992 0.23700014576507683
0.6144797486156469 13.024725942536081 32982.066580373816 11.79997863150758 0.24036037427302037
0.6352599182655742 13.012623633321278 28364.92931335015 12.368737796872184 0.2437650155709216
0.656407313132803 13.003173174077991 24437.55249284068 12.961646058910969 0.24721318334070091
0.6779217667797991 12.996086245833926 21087.058513457094 13.579824610166922 0.2507073773748982
0.6997864765288453 12.991149075795597 18224.005214746954 14.224564529010486 0.25425133826825386
0.7219983605656393 12.988035180919708 15775.50884967919 14.897051451480683 0.2578470428986006
0.744562175037651 12.98667100221596 13577.398320570677 15.598448507677132 0.26149574521735863
0.767459100920877 12.986739863658304 11872.568981998764 16.329751793764366 0.26519666194104474
0.7906809731026946 12.988092659223753 10321.036129345217 17.092700433576173 0.2689557786312503
0.8142325049695521 12.9905934603816 8985.590523154628 17.888744132930388 0.2727755173495711
0.8380890064607902 12.99403673283269 7833.419939938808 18.719410343616588 0.2766584360037158
0.8622458226792226 12.998290611579764 6837.106443017441 19.585721376525267 0.28060215874037575
0.8866954655306939 13.003222338121196 5975.620459375196 20.489897720382594 0.2846143248329893
0.9114313023264558 13.008693653642574 5229.076445256205 21.433733833031788 0.2886979994687957
0.9364297624483828 13.014587630193835 4581.244662315106 22.41892943285805 0.2928548652280088
0.9616813719296498 13.020758809901327 4018.724289825111 23.447070161360184 0.2970852240443167
0.9871805708374953 13.027151386916357 3529.2774735135035 24.52077851629563 0.301396865664928
1.012898417934109 13.033614779024088 3103.3838304008286 25.642251186296814 0.30579334270962777
1.0388375383742148 13.040054509285769 2731.7160837534625 26.812928521554674 0.3102720906219603
1.0649667618914516 13.046391620154369 2407.4702803432106 28.036143765130106 0.31484368931204304
1.091272070748933 13.052514509883997 2123.856125076196 29.31425005998949 0.31951067123824073
1.117746280407656 13.058361985740667 1866.741071639112 30.649389926638758 0.3242735569750658
1.144358144261278 13.063830970340295 1658.4895080464958 32.04534637408408 0.32914309378670553
1.1710936596570516 13.068852275272302 1467.9883203542224 33.50409175595546 0.3341171940227344
1.1979263646980274 13.0733223749114 1300.791188201735 35.02976340415688 0.3392069294614319
1.2248517847451599 13.07721148240432 1153.769745375817 36.625007593729784 0.3444129887943266
1.2518307633614223 13.080407566641052 1019.9445792783337 38.29408551785982 0.34974506929494603
1.2788476556826298 13.082864525814516 910.5641207976547 40.04001380396693 0.35520444259419603
1.3058716712787002 13.084480620753824 810.1817950026281 41.867870480830646 0.36080337992246775
1.3328894567267142 13.08522029172902 721.6907570857064 43.78062264440186 0.3665410578532059
1.3598804583403483 13.085058316152768 643.4897911590148 45.7838887541005 0.3724304635888324
1.386794172761207 13.083842828523688 574.3476795980761 47.882509763082005 0.3784788935575709
1.4136269900703942 13.081578750744535 513.1069080254765 50.0806565561609 0.38468909516787214
1.4403536157671912 13.078214663627913 458.9149446402436 52.384615775580464 0.39107365772379804
1.466922237647724 13.073635870952913 410.8778983597386 54.80023387322087 0.3976414062963463
1.4933241902253978 13.0678388493991 368.2026698387122 57.33366598626004 0.40440134367051545
1.5195262840361001 13.060763791317417 330.3404889801523 59.991502253213454 0.4113631779392578
1.5455011930932918 13.052333442530971 296.6580163817999 62.78080694324352 0.41853738049680006
1.5712119254138497 13.042521443045837 266.6975707123181 65.70916132703452 0.4259352487546231
1.5966305388266466 13.031268919701997 240.02383285901178 68.78471066837723 0.43356897413286194
1.6217254675299257 13.018532857818618 216.24834838002346 72.01621576270088 0.4414517159475117
1.646456998975424 13.004263248198242 195.02603698305052 75.41310950219733 0.44959768188875604
1.670821404854506 12.988424340976557 176.07018488464286 78.9855590076872 0.4580222158690131
1.6947526637408294 12.970963568063341 159.12644611589593 82.74368111813264 0.466738392418667
1.7182434325568028 12.95185130468158 143.97248873925187 86.69930698251926 0.4757642357188479
1.7412451792572279 12.931033005397973 130.40373031206354 90.86542195518398 0.4851199830267822
1.7637309777593213 12.908476490120567 118.25233676418287 95.25417271950666 0.49482000899932604
1.7856661760486403 12.884135940701139 107.34511772004882 99.88105625848591 0.5048892588180636
1.807006501708652 12.857963800143661 97.55800928963728 104.76143340176662 0.5153490988881847
1.8277570677065218 12.830001531884651 88.75937492290264 109.91108588964606 0.5262195178664184
1.847837831390804 12.800103944398844 80.85657583873702 115.34900858286936 0.5375292941462214
1.867258536155309 12.768351322522417 73.74221926273744 121.09464046573535 0.5493051588873656
1.8859532025162034 12.734632886525802 67.33516247461527 127.16914852364711 0.5615763092190769
1.9038927471327556 12.698915546253788 61.557477240451114 133.59560322727833 0.5743746209780822
1.9210675064732894 12.661245575857562 56.3499018605637 140.39838350826753 0.5877321288835656
1.9374332623697115 12.621561269503673 51.64352350359098 147.60483993865572 0.6016864351797968
1.9529714488697054 12.579870359389703 47.39176909693925 155.24507249611156 0.6162792841400975
1.9676206182314937 12.536069128139204 43.55017948806649 163.3499282757976 0.6315491691688684
1.981385360199851 12.490237758069725 40.07339261918789 171.9552008588401 0.6475450950907768
1.9942269430271005 12.442334683973549 36.92040376455362 181.098998373559 0.6643168155839582
2.0060947581215367 12.392287623195427 34.06713842493409 190.82281876563027 0.6819177398821049
2.0169935001657295 12.340179288758886 31.477593773848564 201.17231899713525 0.7004066080848499
2.0268882967656454 12.28597008711821 29.129175014643764 212.19777632322644 0.7198480007495648
2.0357538211623423 12.229668050420193 26.99470656773151 223.95365268915396 0.7403097986778258
2.0435677417154894 12.171272271049151 25.056503669114207 236.50052337696798 0.7618682591486339
2.050292604735761 12.110746821831203 23.295323220348685 249.9043780039604 0.7846042870566425
2.0559223141891394 12.048140331124008 21.69180163070223 264.2387890693082 0.8086088981325525
2.0604472856566893 11.983494368197908 20.23477683099513 279.5842872745015 0.8339793361566058
2.063836149024684 11.916809238294118 18.904554175327274 296.03025973832246 0.8608231545808706
2.066066665417596 11.848080488251654 17.695097446090752 313.67460447313033 0.8892546534922099
2.067137974206215 11.777376835346695 16.593192623017174 332.6279649060035 0.9194059835729033
