M[M_sun], R[km], Lambda[1], P_c[MeV/fm^3], rho_c[fm^-3]
0.24162668629717493 15.618656898711224 2160425.4255784233 3.5677272577965504 0.1711233750220791
0.253644640205105 15.27725410197521 1723045.271393122 3.784832537872096 0.17388833424263467
0.2660407452635228 14.981256685890973 1382891.4974176078 4.011428671751722 0.17666698966422453
0.278816897867488 14.723482708019487 1116361.499563301 4.247771349761354 0.17945801452132773
0.2919721529111006 14.498369142618944 905872.3035633119 4.494485913840117 0.18226797792091837
0.3055084869438348 14.301184060830867 738633.5474709906 4.751728315285113 0.18509259290339272
0.31942551137886166 14.128111085508136 605073.0475132738 5.02018031453721 0.18793846668127256
0.3337227086382353 13.97594581068646 497681.06480877055 5.300066651282933 0.1908022356167563
0.3484068683541926 13.841978138644595 410976.1013293874 5.5921152104355345 0.19369018144926609
0.36347093418749343 13.723926260515531 340648.93549917656 5.8964942110720315 0.19659738445315209
0.3789253176326353 13.619948013835158 283287.54380904796 6.214067379134585 0.19953151778745232
0.39475824068423226 13.5284104813068 236384.41057064827 6.545090957130516 0.20248873880280235
0.4109842225065948 13.447820026298027 197836.8288960193 6.890269739580189 0.2054727990096113
0.42759218739140675 13.377038058175152 166065.94021322226 7.250307849158443 0.20848675345771292
0.4445894989346224 13.314915614791188 139789.7698819854 7.625462680967209 0.21152612332415743
0.4619721286554734 13.260532251004852 117968.5842980883 8.016686435347676 0.21459711956665115
0.4797383872620822 13.213114406452709 99808.9540735434 8.424682780165659 0.2177013664551905
0.4978962482932628 13.17195133637517 84631.18796237027 8.849890564259475 0.22083630231429097
0.5164364568626117 13.136370055374513 71929.01854789576 9.293187175115957 0.2240053921875643
0.5353557574781768 13.105816293682764 61266.133631013625 9.755455704844712 0.22721152843154116
0.5546638886268348 13.07979753835336 52298.07913042087 10.237505907577477 0.23045606224876966
0.5743478207675595 13.057846643958648 44321.87139225319 10.739805802811736 0.23373564950302034
0.5944065816119061 13.039523078705216 38322.46212057921 11.263606488040727 0.2370565579454019
0.6148436590645665 13.024486617560607 32896.24267515536 11.809842785095514 0.24042036478481188
0.6356498181341877 13.012419336546788 28286.82846192138 12.379493918488697 0.2438287033651491
0.6568215892764051 13.003009890928073 24366.1581754305 12.973244757089706 0.24727947674322054
0.678354810926253 12.995968702480116 21024.00634117988 13.592430511806816 0.25077756365790593
0.7002440361529431 12.991062629309756 18169.16470074604 14.238245178985501 0.2543255564620526
0.7224799262721175 12.987992423268997 15725.704063583478 14.911878732636394 0.25792544032325676
0.7450692108677893 12.98663924814867 13631.299387289508 15.614354314415376 0.26157704515066593
0.7679920959979553 12.986750512626651 11833.82666627464 16.34695141510997 0.2652823977396386
0.7912365931582055 12.98814442788558 10286.852191339725 17.111280130845266 0.26904612540745654
0.8148123491055991 12.99067703573002 8954.366939706904 17.908795883961364 0.2728706614744442
0.8386967366934794 12.99414077479131 7806.0031032345905 18.74085267455582 0.2767569841980044
0.8628800985106644 12.998409791939658 6812.669992495891 19.608817961024076 0.2807057785487683
0.8873629648784268 13.003369275166188 5954.089918197229 20.51476708228916 0.2847233062329194
0.9121199068254369 13.008859178699867 5210.031573352241 21.46049465960849 0.28881258157860995
0.937140416269628 13.014749860585596 4564.2051294204 22.44747028730341 0.2929734076886766
0.9624264878709756 13.02095589289287 4003.636817708912 23.47774900025998 0.29720981992466
0.9879482289788765 13.027349274143784 3515.6759762613146 24.553739635426496 0.30152780454385697
1.0136919941778486 13.033798583849734 3091.3397010391523 25.677367049708717 0.30592886158946775
1.0396575928780853 13.040257939801124 2720.7542202071395 26.85062816021722 0.31041451306827056
1.0658101223500116 13.04658109795562 2397.556767365 28.07660351577147 0.31499336752291346
1.0921454243606312 13.052714699206046 2115.1809351196935 29.35732659257535 0.31966572030642404
1.1186433821352004 13.05855168664309 1867.9530732830024 30.695597192055605 0.3244365560979799
1.1452757156168325 13.064004894942887 1651.6551496768686 32.09477083830691 0.3293136311070472
1.1720404277206602 13.069020737557704 1461.6306056044189 33.55683558143456 0.334294946152715
1.1988971562581574 13.073472165149134 1295.0610711372108 35.086312532375125 0.3393939220979463
1.225844551319544 13.077343370601993 1148.7200386475324 36.68519801408865 0.34460715377312745
1.2528416374983726 13.080503126825507 1019.8394504125973 38.35857151611972 0.349949244982077
1.2798856638924847 13.08293877285299 906.4529412843766 40.108702749171336 0.3554169432431645
1.3069306117320836 13.08452017636698 806.5590174464065 41.941008362410244 0.3610244868188233
1.3339680524503499 13.085238536026406 718.3837435957887 43.85902883196993 0.3667741215913524
1.3609780723370568 13.085033620315283 640.4304381635437 45.867399065969664 0.3726733002317295
1.3879104701612759 13.08376825229239 571.6487138071872 47.97148062460126 0.3787321333498737
1.4147605675120287 13.081463845024091 510.6788009129312 50.17606277393423 0.38495643390405554
1.4414911276644378 13.07802597153849 456.72185893694876 52.48630600009335 0.39135286098027583
1.4680871404195028 13.073422848478769 408.88952308079166 54.90865801868149 0.39793326459626893
1.494495941134831 13.06755290251805 366.41678999691106 57.44931039287937 0.40470670861845626
1.5207090712727744 13.06040272455208 328.7310325310453 60.114892946765366 0.41168296723415393
1.5466933693319551 13.05191375952936 295.20307002237394 62.91251321969237 0.41887258344147565
1.5724095393839705 13.04202899540454 265.383647564019 65.84979969841018 0.4262869323151403
1.5978237019868697 13.030688846879537 238.8426537149163 68.9349492104794 0.4339382896072085
1.6229213060739591 13.017868158780109 215.16415744950234 72.17677891019946 0.44183990631022224
1.647672946811089 13.003526701597114 194.0347463880527 75.58478334234182 0.450006089886079
1.6720217572265588 12.987592031383112 175.17779201710076 79.16884473395926 0.45845082140441107
1.6959593375811903 12.970030666397617 158.31849139604373 82.93927377437157 0.46718786377304583
1.719439555984896 12.95081619695729 143.23444389647548 86.90875559999257 0.4762385337867446
1.7424163098608645 12.929840067760843 129.74795267403155 91.08881375116844 0.4856169475452834
1.7649035674213314 12.907217726380779 117.64264723069996 95.49365759272118 0.49534549228553243
1.7868302101536209 12.882777250125065 106.79377056942454 100.13684267026912 0.5054412347977124
1.8081677189926877 12.856513182304102 97.05566699980268 105.03495845142234 0.5159301153115484
1.8288762008660993 12.828373113213868 88.29946310157096 110.2045522991921 0.5268346802701024
1.8489555591654838 12.798397835509096 80.439943323372 115.663337184677 0.5381785885710944
1.8683301250052737 12.7664554696017 73.36304141820342 121.4313839645789 0.5499906452482859
1.8870078948672155 12.732630032646997 66.98685018429562 127.53013231096566 0.562300701643357
1.9049295975796372 12.696807223243992 61.23697874475397 133.98213725044508 0.5751384474885005
1.9220695459509534 12.658982705999078 56.05781532353322 140.81306042071841 0.58854007720268
1.9383813467053106 12.619089011030047 51.37633767521362 148.05058254526415 0.6025438432606857
1.9538753481360365 12.57723900334928 47.14986416305141 155.72313906003146 0.6171852681338633
1.9684901851802588 12.533298665117206 43.32628339965132 163.86446044471845 0.6325122140922558
1.982204560788866 12.487291643319608 39.8669656157894 172.5084240779309 0.6485665612766526
1.9949891480080917 12.439207194757744 36.73170799723102 181.6941638697889 0.6654009177877778
2.006824701565685 12.38904028028085 33.89284078539408 191.46378721314215 0.6830700165474574
2.0176688849301083 12.33675869904343 31.31858568439869 201.86334889934443 0.7016331179967922
2.027502648063891 12.282368121230036 28.98211815587185 212.94271845257157 0.7211525904948548
2.0363103783211893 12.22589130001088 26.861405921481694 224.75760887112693 0.7416994560778483
2.0440513469801074 12.167289716892125 24.934250343293076 237.36900514526172 0.7633502053149718
2.0507092334277024 12.106574385139634 23.180984237295764 250.84390745177572 0.7861878072707614
2.056278787150085 12.043818892555457 21.588088341493044 265.2555887741528 0.8103009119162315
2.0607209800607627 11.978961788233322 20.135684228332284 280.68543768904397 0.8357879811386775
2.0640241068910417 11.912059142999825 18.816267683322753 297.22361459122277 0.8627572914560648
2.066180307074439 11.843148483628308 17.613534316990634 314.9704376885699 0.8913290275993511
2.0671693773868847 11.772246805920709 16.51866773502069 334.0352285678215 0.9216286441153166
