M[M_sun], R[km], Lambda[1], P_c[MeV/fm^3], rho_c[fm^-3]
0.24162668629717493 15.618656898711224 2160425.4255784233 3.5677272577965504 0.1711233750220791
0.25364536622853084 15.277244289244807 1723171.194493285 3.7848452778703976 0.17388849304056753
0.26604247511864754 14.981207684722774 1382898.5539061418 4.011455453994259 0.17666731331181978
0.27881914032109495 14.72346357328549 1116357.9421106603 4.247813080563087 0.17945849853574086
0.29197529140435363 14.498325971609958 905831.4590757388 4.494543688486895 0.18226862125501903
0.30551213544436473 14.301138207141108 738578.0000907487 4.751804095768383 0.1850934114772413
0.31943041780634396 14.128039632902512 605019.152322099 5.0202746593236185 0.1879394455448453
0.33373103093531836 13.975807965830304 497573.52062326774 5.300182044532448 0.1908033974353069
0.34841370928622045 13.841877268125632 410934.2512449761 5.592251940511571 0.1936915043503649
0.36347917724583734 13.723861918137413 340606.7236512234 5.8966553501830195 0.19659889790578317
0.3789341959476583 13.619894107972678 283227.39648779656 6.214254877655138 0.19953322754819686
0.39476830974220883 13.528346944883188 236360.89986804355 6.545304620642938 0.202490612343161
0.4109955719171244 13.447775332701688 197824.26851662045 6.890513693336467 0.20547487662217098
0.42760610441837643 13.376964582707727 166044.12756107465 7.250584382822395 0.20848904114984526
0.4446036234997571 13.314830774543958 139769.4109936753 7.625771030462421 0.2115285779844074
0.4619851659097119 13.260480090738671 117944.9351217468 8.017031979668927 0.2145997926313366
0.4797546826341187 13.213094599852854 99783.62340361562 8.425068214330633 0.217704264381284
0.4979148148251719 13.171907035299968 83741.16345135364 8.850314467305138 0.2208393715534614
0.5164561715032554 13.13633594141448 71918.64015507595 9.293656407958421 0.2240086956160285
0.5353760924526824 13.105796559865773 61256.64689549243 9.75597344962161 0.2272150731863421
0.5546866604540118 13.079765770157973 52288.06508875406 10.238071866644297 0.23045980854761455
0.5743709793914241 13.057800859947184 44715.06756232632 10.740424847553491 0.23373962396201847
0.5944302025285032 13.039494101094409 38314.904771253285 11.264284256034651 0.237060792652093
0.6148738299040151 13.024464383505405 32890.69236998925 11.8105832810633 0.24042486823578627
0.6356794457402521 13.012400022060982 28280.83695548215 12.380301397030244 0.24383348450551093
0.6568520629799406 13.002992267178387 24361.394793383755 12.974115510083603 0.24728445361026458
0.6783862634478809 12.99596528036086 21019.22795176015 13.593376905854287 0.25078283292640813
0.700278660321562 12.991045937059598 18165.036859700296 14.239272289523102 0.2543311285868473
0.7225158856452235 12.988001811068415 15722.50735481618 14.91299196124985 0.25793132638257077
0.7451073331254366 12.986638961094297 13627.823766333438 15.615548546640142 0.2615831492736334
0.7680306983612507 12.986764154786448 11831.120964444297 16.348242825739387 0.2652888350977292
0.7912790220397441 12.988153041277576 10285.082072329444 17.11267520254285 0.269052909168711
0.8148563208069886 12.990673484119514 8951.883768185653 17.910301529239103 0.2728778056536283
0.838744491137182 12.994146135456186 7804.138852563977 18.742462214765645 0.27676437920247005
0.8629266435115002 12.998429446628998 6810.821772208978 19.61055232740331 0.2807135595569043
0.887412288653692 13.003369199286647 5952.426453028176 20.516634624064743 0.284731490090547
0.9121715425307976 13.008863202077093 5208.6499830805 21.46250429781676 0.2888211862674527
0.9371940559327889 13.01476149036235 4562.761702092841 22.449613649688917 0.2929823099957805
0.9624823106610348 13.02096990004857 4002.341716927126 23.48005298901699 0.29721917710758394
0.988006107150272 13.0273588805079 3515.168196171771 24.556215097552084 0.3015376383797249
1.0137512963809931 13.033814933216204 3090.467031118427 25.68000440191456 0.3059390396395555
1.0397192812822105 13.040276829899796 2719.989335462821 26.853459650346906 0.3104252099281154
1.0658736597166483 13.046599837786987 2396.836471447511 28.079642400829265 0.3150046096801507
1.0922097845017489 13.052734477574289 2114.6092483789425 29.360562100812462 0.31967736614946546
1.1187101587572286 13.058564514055966 1867.3505503342085 30.6990679592699 0.32444879945422844
1.1453451121779534 13.064018763440364 1643.235033635636 32.098465535055205 0.3293263257211614
1.172111419693694 13.069030381364172 1461.2011978740543 33.56079755427913 0.33430829840969767
1.1989712262003343 13.07348648866154 1294.6942242986088 35.09056048514116 0.33940796892612096
1.2259196756452158 13.07735255734528 1148.3520001728616 36.68971961766542 0.3446217397663369
1.2529186439401439 13.080506138294428 1019.6039343332607 38.36338512388817 0.34996440257147593
1.279963049728676 13.082943305210891 906.1416874615851 40.11386308385797 0.3554329075947285
1.3070174976776838 13.084544631236609 806.2929192466042 41.94650307862247 0.36104109817837876
1.33405043372606 13.085242435078326 718.0999313087591 43.864919547375266 0.3667916318439908
1.3610607499841905 13.085031581200859 640.2151976810022 45.873673435401734 0.37269154524572934
1.388000520759019 13.08377889721579 571.3994995021684 47.978165453249176 0.3787511605301153
1.4148458356745928 13.081450872284709 510.4976883065717 50.183231379050945 0.38497652112558917
1.441578420096263 13.078009201442994 456.5878608400246 52.49394699957615 0.3913738403020205
1.4681741156771502 13.073405680476824 408.74454083639887 54.91680525329292 0.3979551954865947
1.4945859960367984 13.067529236030273 366.2845283048664 57.45800044488526 0.40472965514354947
1.520797738615399 13.060375761887812 328.6298612324623 60.124165385426174 0.4117069984356648
1.5467821685611134 13.051879757130862 295.09088236060217 62.92241087125126 0.4188977737515912
1.5724999306993017 13.041989689679124 265.2815112883946 65.86036894331018 0.42631336201311
1.5979135951544134 13.030647372157917 238.75102105546492 68.94624031086855 0.4339660453218058
1.6230222723001198 13.017833713200531 215.07795675744956 72.18884637116095 0.4418690815731678
1.6477644029401892 13.00346931328126 193.95699416302693 75.59768631071263 0.4500367857420545
1.6721124989117027 12.987525392129562 175.11654024786006 79.18258004635929 0.45848286573109814
1.6960494175424372 12.969962294081835 158.24896861787747 82.9539754732221 0.46722164823418605
1.7195289151258066 12.950738759334815 143.1789943987755 86.92449938439997 0.476274185712338
1.7425100514334135 12.929790352548562 129.68637505594944 91.10560617366596 0.4856543045042719
1.7649915253707562 12.907125245119516 117.58853062432483 95.51166046249672 0.4953849946016654
1.786902111452699 12.88264505575707 106.7501977372978 100.15607166422667 0.5054827301324465
1.8082536430311302 12.856402322756791 97.01568895379573 105.055513305504 0.5159737635872754
1.828957337371903 12.828249776509136 88.26771884592095 110.22654180256154 0.5268806544722693
1.849036910756562 12.79826892519075 80.4084732382009 115.68696996778066 0.53822740574594
1.8684103579370017 12.766315164402215 73.3347015202042 121.45670303374474 0.5500421855947037
1.878496158846433 12.736208418960324 69.17563151191234 128.79659363745745 1.53266233429451
