M[M_sun], R[km], Lambda[1], P_c[MeV/fm^3], rho_c[fm^-3]
0.24162668629717493 15.618656898711224 2160425.4255784233 3.5677272577965504 0.1711233750220791
0.2536404564399844 15.277383547942067 1723161.7269277407 3.784772897285465 0.17388759085149388
0.26603438458449574 14.981397610178751 1383165.056719412 4.011303295990467 0.17666547457214146
0.2788056635073794 14.723708748669788 1116640.5256968555 4.247575997842444 0.17945574873345743
0.2919585269497483 14.49857033828124 906064.6106461321 4.4942154602782605 0.1822649663577381
0.3054897311192057 14.301422145486017 738814.9532661209 4.751373577742834 0.18508876106090935
0.31940281358213324 14.128355869503714 605263.0457708859 5.019738680670286 0.1879338845594482
0.3336975486536583 13.976159223804105 497823.05672282923 5.2995264950584415 0.19079679713985695
0.34837384062343124 13.842226169575769 411116.11897221924 5.5914751839818795 0.19368398901726178
0.36343250546354666 13.724224057130247 340767.32979012054 5.895739936486184 0.1965903001466203
0.3788812278180587 13.620256650735222 283423.2447432788 6.2131897297772145 0.19952351468207172
0.3947111115834411 13.528652767020725 236510.27890031206 6.544090844987215 0.20247996917039093
0.41093109303944736 13.448091865062938 197961.29619615697 6.88912785914184 0.2054630742766268
0.42753521159905356 13.377257713466616 166161.39699844047 7.249013486577823 0.20847604552780014
0.4445247460703083 13.315106610180823 139878.49309773618 7.6240194144277575 0.21151463399448606
0.4619011176587221 13.260731228172135 118046.8159763255 8.015069092976075 0.21458460811584165
0.4796600990891945 13.213316069609498 99865.91568265631 8.42287875189593 0.2176878026845874
0.497811844275319 13.172132962808703 84695.32528667121 8.847906502396146 0.22082193685867604
0.5163444718432527 13.136535417848904 71983.77842621155 9.290990974202677 0.22398993079621765
0.5352578019286724 13.105975081830536 61314.79095272311 9.753032476155628 0.22719493772524602
0.5545588776918893 13.079930059567301 52338.36083610613 10.234839857778118 0.23043830739713533
0.5742356673135024 13.057926624642127 44763.713890795036 10.736908516166698 0.2337170480252921
0.5942851740558124 13.039604149101137 38355.40589998155 11.260434397683927 0.2370367386674495
0.6147169008877666 13.024563009039234 32926.473657367234 11.806377154533273 0.24039928796871654
0.6355113855646242 13.012483094651278 28317.134498771546 12.375714842420104 0.24380632717532832
0.6566740214820993 13.003104888299005 24390.265346292665 12.969169589451827 0.24725618475610356
0.6782023613017732 12.996012455287792 21045.688537947273 13.588001390226356 0.2507529034955786
0.7000839776093296 12.991085459213474 18188.177307580492 14.233438358736683 0.2542994792276059
0.7223110416926396 12.98801913485563 15742.772710442721 14.906668943496031 0.25789789420422676
0.7448905234135977 12.986653794027754 13646.517821013813 15.60876548945876 0.26154847878470183
0.7678045644308662 12.986750781256502 11846.81711524024 16.34090787837722 0.26525227222479714
0.7910415712519367 12.98812505544389 10299.164803518253 17.104751555656716 0.2690143791570757
0.8146094668672037 12.990638805113788 8964.937664696841 17.901749933206474 0.27283722894192186
0.8384844427104535 12.994102423489144 7765.1273529499 18.733320597983617 0.2767223782033562
0.8626576163496362 12.99835962375804 6821.465900444989 19.600701835196308 0.2806693666107518
0.887125825762357 13.003304590845202 5961.727991379122 20.506027850585642 0.28468500956455534
0.9118775590897973 13.008804336067156 5216.557927534601 21.451090591161044 0.28877231608081383
0.9368921904990278 13.01468000231661 4570.145445332496 22.437440552952783 0.29293174988224885
0.9621603581763368 13.020883498846914 4009.0053704972443 23.46696775059853 0.29716603406636344
0.987678285228883 13.027274587200646 3520.4920894622405 24.54215613238986 0.3014817887852395
1.0134187499198368 13.033738827984651 3095.6475708047988 25.665026127346675 0.3058812355933452
1.0393686525946277 13.040192967279005 2724.5968406295447 26.837378969522263 0.3103644600116008
1.0655161444432806 13.046518756177885 2401.1362160592334 28.062384048241917 0.31494076352942324
1.0918375210123508 13.052642464043315 2118.2875575428143 29.34218723921813 0.31961122792994834
1.1183283846764824 13.05848902552231 1870.866548486278 30.67935723156344 0.3243792685850206
1.1449520497831762 13.063946661514406 1653.9740230466903 32.077483268478886 0.32925423271987525
1.1717073498491741 13.068954618054914 1463.940026419698 33.538297653102525 0.3342324714228956
1.1985565087962329 13.07342392323513 1297.0401835582925 35.06643676655468 0.33932819832871036
1.2254964077611457 13.07729039491991 1150.457126392788 36.664042081400986 0.34453890800914505
1.25248546829717 13.08046003125385 1021.4866895490231 38.33592978274006 0.3498776227529117
1.2795214298313218 13.082906833325046 907.9131412448507 40.08455885701432 0.35534225010678394
1.3065584422227081 13.084510321300119 807.8839800376676 41.91530026291135 0.36094676733927816
1.3335895889225124 13.085234764402394 719.5114043259534 43.83146834608646 0.36669219757407306
1.3605915136165352 13.085041395395194 641.4908893322435 45.83804393350216 0.37258793949410735
1.3875181861323937 13.08379430121837 572.5666158405354 47.9402054834915 0.3786431142024401
1.4143690661528052 13.081519491674861 511.5220588191514 50.142524746987704 0.3848624566565844
1.4410961119758943 13.078099593517816 457.49653469354206 52.450558319387184 0.39125471124255523
1.4676782904460763 13.0735016532838 409.5802252906319 54.87054242700167 0.3978306642784066
1.4940854940147001 13.067653023538664 367.06533052765553 57.40865581542278 0.40459935813526815
1.5202938424279773 13.060525572252377 329.30070899645284 60.07151434369087 0.41157054374019786
1.5462746718539793 13.0520602092883 295.71264238296567 62.86621032419114 0.4187547388911816
1.5719885947775396 13.042201158850395 265.8442878537548 65.80035562755062 0.42616329132928227
1.5974110695250787 13.030899551901332 239.2598355733399 68.8821289345269 0.4338084471247432
1.622497583739984 13.018104765527282 215.53370406737798 72.12032756435684 0.4417034250020295
1.6472500728971655 13.003788381600579 194.38162841298475 75.52442436286428 0.44986249730430805
1.6715988995341429 12.987882321903683 175.48560683307605 79.10459289600401 0.45830092260155025
1.695537879601075 12.970361739412452 158.60446783638105 82.8705023393192 0.4670298272155904
1.7190100055607354 12.951171090384573 143.4921181162536 86.83511063007573 0.4760717641638975
1.7420162498411598 12.930293471296116 129.97984303117303 91.0102645892364 0.4854422045728918
1.764013913786547 12.907760076808328 118.0655712381949 95.45037721183971 0.5867614886332471
1.7814960494715883 12.881938701465879 108.76091337261369 100.41901315316586 0.7752936358162201
1.7944762940677086 12.850232864119786 101.37723339164941 105.9714220025268 0.9556841394392458
1.8036467069626734 12.812012785459052 95.31724331125305 112.12373884388315 1.1284943559258658
1.8096401218991323 12.767154667082147 90.17959969263282 118.89232808156002 1.2944628276706462
1.8129884137165553 12.715891484433888 85.67268444825447 126.29516703996309 1.4544726118001003
1.8141250191282774 12.658496367789157 81.6491017523477 134.35320337698948 1.6094759389460096
