M[M_sun], R[km], Lambda[1], P_c[MeV/fm^3], rho_c[fm^-3]
0.24162668629717493 15.618656898711224 2160425.4255784233 3.5677272577965504 0.1711233750220791
0.2536465533124204 15.277190662975306 1723030.1895544096 3.7848603692265375 0.1738886811470415
0.2660439175025272 14.981202391491426 1382784.0979307757 4.0114871794670055 0.17666769669543483
0.278822229770872 14.723389315931886 1116297.6195955959 4.247862513917388 0.17945907188815627
0.29197935809771464 14.498250349729986 905751.1285786374 4.494612127349539 0.1822693833376384
0.3055169317215939 14.301081270736518 738535.8358777404 4.751893864485309 0.18509438115071025
0.31943665150042866 14.127948083926583 604990.2396410045 5.0203864196336525 0.18794060510119742
0.3337376061137391 13.975825159372073 497569.0046342523 5.300318739398585 0.1908047737257911
0.3484218392045339 13.841851728583853 410897.6856438311 5.592413911719718 0.19369307146636047
0.36348699482927666 13.723859741964102 335610.1547017501 5.896846237375173 0.1966006907586879
0.3789436049038958 13.619854329517151 279294.85691181966 6.214476991544381 0.1995352529594242
0.3947809082197573 13.528289093336705 236325.3393307991 6.545557731108467 0.2024928317800082
0.4110089672594608 13.447703506077383 197790.29316736455 6.890802687620796 0.2054773378187681
0.427620809530781 13.376902681233721 166015.0929064517 7.250911973658596 0.2084917512248788
0.44461902330210434 13.314813169552075 139743.91916392423 7.626136312875184 0.21153148586728882
0.4620031706553693 13.260429051685197 117924.09804877492 8.017441326319407 0.2146029592586206
0.4797739423868686 13.21303612791205 99760.28089406036 8.425524818255324 0.21770769740447712
0.49793481655757243 13.171877821935054 84596.57347276283 8.850816645305983 0.22084300753675168
0.5164787223374924 13.136296323974806 71905.71942299369 9.294212288501699 0.2240126090497083
0.5354007752615032 13.105751242346916 61245.763781889946 9.756586802937182 0.22721927252780733
0.5547131353509199 13.079719593149076 51790.4255603995 10.23874012889004 0.2304642182341321
0.5744001109208271 13.057784776136957 44704.20988585155 10.741158213242171 0.23374433239690806
0.5944612153920616 13.039452434929194 38303.81760297959 11.265087193090704 0.23706580941734942
0.6149037625102164 13.024460459962905 32880.667506833146 11.811460534417687 0.24043020339984586
0.6357128315611956 13.01239087912109 28274.653425076987 12.38125800770466 0.2438391486682975
0.6568886198447886 13.00298464817786 24355.148566185795 12.975147085067563 0.24729034966985566
0.6784258182009825 12.995955020792895 21013.88820127377 13.594498097131025 0.2507890754190519
0.7003189423932707 12.991036052207923 18159.566584626053 14.240489110761354 0.25433772990145176
0.72255922916974 12.98798824858896 15718.392407622894 14.914310812592461 0.25793829964676396
0.7451522119532166 12.986637569667863 13624.16867862803 15.616963368736902 0.26159038090570347
0.7680789487712157 12.98676010799884 11827.158408846723 16.349772782982935 0.2652964615508618
0.7913288264413985 12.988147412337328 10282.047055415778 17.11432797611744 0.26906094604692815
0.8149081316930045 12.990692561554445 8949.221957627211 17.91208530969226 0.2728862695643321
0.8387950553654924 12.994165408128177 7801.253974109844 18.744369089301678 0.27677314030431976
0.8629834965590605 12.99843293472537 6808.729461925614 19.61260709659864 0.2807227780104086
0.8874699118928852 13.003387053684069 5950.565147560167 20.51884718096039 0.28474118585792607
0.9122325863898607 13.008881550304427 5206.848036027736 21.46488521305263 0.2888313806570106
0.9372578617074214 13.01477642501236 4561.6885465577225 22.452153003570203 0.2929928570261145
0.9625479561251944 13.020986376459101 4001.1710574585877 23.48278265766375 0.29723026310302203
0.9880751831695738 13.027373268594703 3513.4901779218208 24.55914793389937 0.3015492891462499
1.0138227034472957 13.033839947902 3089.4197942831183 25.68312905112865 0.3059510982626461
1.0397917444527507 13.040293392841228 2718.9700876114844 26.856814323284294 0.3104378832783984
1.0659490192457892 13.046619371233707 2396.178653145659 28.083242806373377 0.3150179291458347
1.0922864015373153 13.05274149677206 2113.818634402834 29.36439547567215 0.31969116394525615
1.1187907432130324 13.058580685544909 1866.590481210082 30.703180084369667 0.3244633052419769
1.1454277506921904 13.064045816120954 1650.3680634719094 32.10284298609127 0.3293413662117597
1.1721955396239003 13.069044440718462 1460.7007824811394 33.565491694812174 0.33432411814728014
1.199056114895445 13.073494936366469 1294.2213597516036 35.0955934789022 0.339424611672041
1.226008417430527 13.077356826281214 1147.887256478793 36.69507685549922 0.3446390213863062
1.2530082868976393 13.080519910490738 1019.2046499046925 38.36908835405124 0.3499823614965104
1.2800562137109224 13.082954330116884 905.7983980834933 40.11997715189808 0.3554518224786664
1.3071106984410126 13.084556841802055 805.9272266589203 41.95301335574622 0.3610607797324265
1.3341457001498584 13.085236956056807 717.8161413926002 43.8718990505683 0.3668123785370137
1.3611582461239211 13.085024197079976 639.9349946378778 45.88110753590762 0.3727131626001542
1.388099189288427 13.083778466488436 571.1676527530836 47.98608591551774 0.3787737047225125
1.4149459070574952 13.081442205238595 510.28844427177233 50.19172508598891 0.3850003214284552
1.441679679128877 13.077998326181428 456.3529943843801 52.503000463309206 0.39139869772139174
1.468277416928139 13.073382621562926 408.5737052871481 54.926458576351884 0.39798118049615716
1.4946881060667272 13.067504974964157 366.12444770283463 57.468296978887125 0.40475684366620585
1.5209029108947252 13.060344459764316 328.4867659206009 60.13515202204604 0.4117354722911624
1.54688747275407 13.051845269384744 294.96876811890803 62.93413836223674 0.4189276211485261
1.5726066233088318 13.041945280564512 265.1640602469877 65.87289225277017 0.4263446780900616
1.5979950571414274 13.030581390311228 238.66777249480592 69.07780185553338 0.4342673471082255
