M[M_sun], R[km], Lambda[1], P_c[MeV/fm^3], rho_c[fm^-3]
0.24162668629717493 15.618656898711224 2160425.4255784233 3.5677272577965504 0.1711233750220791
0.25364179687901994 15.277353026996337 1723141.2266645054 3.7848012622418197 0.17388794440699115
0.2660375178442839 14.981301951682187 1383055.908463914 4.011362924128775 0.1766661951430028
0.2788110823065822 14.72362785107899 1116560.5090146714 4.2476689057950034 0.17945682632569782
0.29196501027045135 14.498492470842566 905944.316594742 4.494344085316444 0.18226639862739058
0.30549868702191213 14.301319893944772 738762.8515758084 4.751542286464145 0.18509058343708493
0.31941388474265653 14.128228785896715 605146.0114761909 5.019948715081247 0.18793606374752778
0.33371029372779504 13.976092731457971 497743.0494258111 5.299783383816335 0.19079938358339338
0.348390080320603 13.842115045649457 411057.763585023 5.591779567708194 0.19368693401354695
0.3634516550699936 13.72406346570421 340683.51118209603 5.89609865241724 0.19659366928255714
0.37890318432355885 13.620099449238257 283350.54884702194 6.213607117750305 0.19952732075781845
0.39473344992978726 13.528528762367536 236455.58892383173 6.544566470884435 0.20248413976697044
0.41095626745370506 13.447951214428262 197902.52004387358 6.88967090333376 0.20546769906884485
0.4275632507408038 13.377119965601397 166116.09782469034 7.249629043543009 0.20848113787281938
0.44455567265780016 13.31499485668364 139836.72241812476 7.624705782129224 0.21152009792272272
0.4619352264487188 13.26063102064576 118004.95733487738 8.015838241228229 0.21459055809940172
0.4796974336204404 13.21324594369673 99835.5347613681 8.423736676729849 0.21769425307998155
0.4978518915609564 13.17205002095671 84662.75543748493 8.848850039934955 0.2208287684735996
0.5163879508198551 13.136462370436195 71957.3022461596 9.292035391073108 0.2239972835560973
0.5353040645176452 13.105898208003596 61292.8788611168 9.754184851760566 0.22720282749862536
0.5546081425321154 13.079855022919945 52312.076190224165 10.236107701605116 0.23044675074243565
0.5742887018693962 13.057891075416618 44743.47507200116 10.738286319150994 0.23372589394724125
0.5943425641712028 13.039555332428117 38339.54970003205 11.261942876010549 0.2370461636673321
0.6147770119232632 13.024528247455967 32911.53121640732 11.808025216970345 0.2404093109380654
0.6355761757190908 13.012449930699983 28303.760553982123 12.377511953420347 0.24381696800291172
0.6567459524052621 13.003038279230733 24379.715874776248 12.971107496568857 0.2472672610385083
0.6782750366113326 12.995988063276178 21035.23245048307 13.590107606495375 0.2507646303434754
0.7001601551015808 12.991073283753382 18178.9713897345 14.235724173974322 0.2543118798868293
0.7223916548412459 12.988007418679802 15734.717233292367 14.909146372770246 0.25791099330667355
0.7449766600129519 12.986650041568495 13639.850798502737 15.611423152214776 0.26156206299381324
0.7678924385704798 12.986769154704682 11840.145513846153 16.343781756893826 0.26526659778840883
0.7911354483582972 12.988133066180154 10293.124819655646 17.107856068926626 0.26902947535383087
0.8147055098704805 12.990659118354829 8960.080510192083 17.905100456000376 0.27285312693300506
0.8385842752992705 12.994117443465722 7810.022696990388 18.736902271149713 0.27673883413834693
0.8627628636477477 12.99839141109188 6775.1979284818335 19.604561217935387 0.28068668122711676
0.887233614009896 13.003334272437144 5957.601652717746 20.510183512165526 0.2847032203179439
0.9119929258908859 13.008829015586981 5213.52093079873 21.455562372182733 0.2887914629521791
0.9370095756026505 13.014714749286343 4567.355826776705 22.44220982850797 0.29295155873769135
0.9622857884844421 13.02091724373003 4006.46921706759 23.472094356034173 0.29718685473430045
0.9878068871268425 13.027319020193127 3518.143680370925 24.54766419027911 0.30150366968443565
1.01354627798354 13.03377110082134 3093.5720401794874 25.67089432061778 0.3059038820813286
1.0395064885675902 13.040220628646937 2722.7666361756023 26.84367901808219 0.3103882604606133
1.0656578613475 13.046560014981791 2399.3712802246505 28.069145432462964 0.3149657768297321
1.09198281095592 13.052677135959595 2116.722414192884 29.349386000518074 0.3196371390505662
1.1184784784682733 13.058514994003275 1869.522640210966 30.68707929047832 0.3244065086482198
1.1451060370342887 13.063978027680376 1652.945356503111 32.08570342745819 0.32928247637647506
1.1718652992864098 13.06898716867498 1462.7761940982984 33.54711230396873 0.33426217770514327
1.1987186049582317 13.073449518621665 1296.0649804762425 35.07588749762915 0.33935944933427464
1.225662737760407 13.07731786717932 1149.635493157112 36.67410147418261 0.3445713580530981
1.2526546359538466 13.080482851726925 1020.728637216638 38.346713538138474 0.34991178332597966
1.2796942579847743 13.082922839367965 907.2296046583748 40.096038871313596 0.3553777654358009
1.3067343794665307 13.0845184552325 807.1980750127257 41.927523974200355 0.360983721470389
1.3337700546017588 13.085233825157285 718.9281788822531 43.84457275515295 0.36673115065492
1.3607746517357944 13.085037266957197 640.9741648181019 45.8520015901728 0.3726285264637012
1.3877046273360298 13.083784248388403 572.1220460514048 47.95507598450656 0.3786854404486311
1.4145593753011647 13.081499404135682 511.1245581253051 50.15847109271383 0.38490714007463267
1.44128094865849 13.078052197247041 457.1186852642092 52.46755520336628 0.3913013783177797
1.467873179755749 13.073463772747752 409.25318672383804 54.888665082444085 0.397879447207569
1.4942816122328337 13.067602011043563 366.7481144165349 57.42798556819456 0.40465039933234304
1.5204912782364413 13.060466819190678 329.03490526408075 60.092139157672904 0.41162399667518684
1.546474286843527 13.051990561933899 295.4743542012822 62.88822540104198 0.4188107690120432
1.5721897397431246 13.042118372859695 265.6279935779181 65.82386406692974 0.42622207707589027
1.5976115153788153 13.030803171301173 239.061497690843 68.90724246157156 0.4338701810448361
1.6226916531339677 13.0179638993136 215.364224901361 72.14716733204241 0.44176831498030444
1.6474507592233685 13.00366492134678 194.21592840201657 75.55312183782189 0.44993076791715036
1.6718003705852584 12.987742837835793 175.34234917874093 79.13514105813559 0.45837219111430955
1.6957385599150392 12.9702062904708 158.46166071652212 82.90319910768736 0.46710496429407194
1.7192012489020114 12.950971008027887 143.3766277346447 86.87012424700987 0.47615105277922604
1.7422063089557427 12.930084889750223 129.86585283698594 91.04760963159987 0.48552528354593455
1.7646864017281205 12.907449041677996 117.74950769457013 95.44948378890177 0.4952485650964215
1.7866155451663506 12.883027126344562 106.88880488014668 100.08966071931823 0.5053394181944914
1.807955933048675 12.856785811699925 97.1457803595809 104.98452370057434 0.5158230170124073
1.828668630245543 12.828668886983118 88.38757287954358 110.15055882286805 0.5267217305474532
1.848750923728848 12.79871891961824 80.51441841826973 115.60535138091853 0.538058809909892
1.8681410226888728 12.766831490171809 73.42805156424036 121.36926126606 0.5498641861995306
1.886814222599369 12.73299968303082 67.05253386098354 127.46358729310518 0.562167245480011
1.9047409780020763 12.697201166480452 61.29734866077359 133.9109064293363 0.5749978157306581
1.9218866294302988 12.659408001146812 56.105306074277834 140.73655330671775 0.5883910122504217
1.938206143390317 12.619535426401931 51.42545774564487 147.9683409991013 0.6023856475548693
1.9537084606756945 12.577724107970363 47.19427322236905 155.63493075746928 0.6170181045707325
1.968330580460496 12.533812437113527 43.36766419776431 163.7697267098603 0.6323352140424443
1.9820540749027025 12.487835338054891 39.90258690615315 172.40634124060853 0.6483780764790433
1.9948483684029572 12.439778874008661 36.76920872605399 181.58433772471233 0.6652008679416951
2.0066862621570367 12.389628622956643 33.92692875123002 191.34550460112527 0.682857378477248
2.0175461744952057 12.337393015820105 31.34606510973154 201.73582312498775 0.7014067723266894
2.0273907518257754 12.283032549481382 29.009773606805734 212.80540232340326 0.7209123641422379
2.036209589637952 12.226590120347822 26.886709390284093 224.60923147917734 0.7414429822234987
2.043962702245327 12.168021698539244 24.95689234095731 237.20884366658652 0.7630771152811465
2.0506322222977253 12.107342327172528 23.2017299260955 250.6706571037485 0.7858960604099993
2.0562086151480856 12.044600676333125 21.60537146275665 265.06790502369137 0.8099885952512677
2.0606733898837373 11.97979894143087 20.154283974934398 280.48245945268604 0.8354550495882798
2.063994565167861 11.912943685770214 18.832887768365715 297.0033987163613 0.8624005022802632
2.066161056418981 11.844055881327558 17.62852401096229 314.7312159445127 0.8909460806384113
2.0671646735993763 11.773193597592584 16.53261689423864 333.7754232529358 0.9212183023735568
