M[M_sun], R[km], Lambda[1], P_c[MeV/fm^3], rho_c[fm^-3]
0.24162668629717493 15.618656898711224 2160425.4255784233 3.5677272577965504 0.1711233750220791
0.2536434277256613 15.27728526386291 1723115.488902994 3.7848090992154004 0.17388804209108616
0.26603819686041547 14.98131482801848 1383087.3608566262 4.0113793989405 0.17666639423137973
0.27881257852846264 14.72359473896687 1116532.6375936107 4.247694575740465 0.1794571240583814
0.2919665382481741 14.498482078047825 905970.0374014822 4.494379623919066 0.18226679435797885
0.305501134022831 14.301289361663784 738729.6771083777 4.751588900335936 0.1850910869558642
0.31941718036239164 14.12818734009517 605148.7960408999 5.020006747511288 0.1879366658563879
0.3337148707161872 13.976003547304675 497715.621938799 5.2998543625332895 0.19080009822129812
0.3483942784113713 13.842078859994231 411033.89216713136 5.591863669845353 0.19368774772485967
0.3634557090127368 13.72404488985437 340683.6865169513 5.896197767317186 0.1965946001906724
0.37890898970594 13.620045997245441 283349.32439569855 6.213722444717872 0.19952837240089996
0.39473941125998935 13.528510855354119 236421.56240793195 6.544697890098175 0.20248529213593627
0.4109633917101397 13.44793854935139 197888.28734750726 6.889820951658772 0.20546897694334598
0.4275717971074882 13.377075282161416 166100.88977556422 7.249799128858701 0.20848254494504698
0.4445641846150261 13.314990441001902 139827.15338709872 7.624895434261502 0.21152160767564157
0.4619439980161512 13.260611167396359 118000.3356252784 8.01605076792783 0.2145922021652436
0.4797093381480451 13.213170285045086 99823.24256324036 8.423973735058093 0.21769603542720847
0.4978636515410417 13.172016841925922 84657.48357304379 8.849110755758925 0.22083065616756045
0.5163995705964012 13.136434163432167 71948.48123939331 9.292323983273855 0.22399931526318217
0.5353164494028633 13.10588577124934 61287.606397012 9.754503276838435 0.22720500760526066
0.5546229227701128 13.079832570413396 52308.896122409285 10.236458034935353 0.23044908382574955
0.5743030200638188 13.057865109777648 44738.747630113874 10.738667038505278 0.23372833828342784
0.5943579537561624 13.039545475707952 38335.21647836018 11.262359706401513 0.23704876803115796
0.6147937331985217 13.024519978830753 32908.29753987365 11.808480620535121 0.24041208055156332
0.6355937421960044 13.012442239413216 28299.85887153147 12.378008545889974 0.243819908363773
0.6567647304146834 13.003035084541015 24375.79642987806 12.971642997531703 0.24727032174241942
0.6782959554325501 12.995983532608673 21032.703021299334 13.59068961953167 0.2507678708361309
0.7001815812020948 12.99107041780404 18040.714275750994 14.236355819357046 0.25431530659385804
0.7224138888977703 12.988005544414275 15733.721073026441 14.909830971239726 0.25791461303684304
0.7449995436756949 12.98664693913237 13541.057175381371 15.612157558798636 0.26156581679311874
0.7679181334883323 12.986749918979722 11838.500298037938 16.344575916062027 0.26527055647268033
0.7911611863401614 12.988129140324547 10291.66808823314 17.108713965894705 0.26903364701627835
0.8147336936829669 12.990658064882945 8958.75003354907 17.90602634017769 0.27285752018722254
0.8386139430156904 12.99412218202308 7809.382206288044 18.737892036076268 0.2767433815960663
0.8627919910871077 12.998391405383016 6816.292045075218 19.605627731645754 0.2806914660015202
0.8872657447432023 13.003334082252895 5956.619168084024 20.511331907091307 0.2847082527625701
0.912025124207734 13.00883655062426 5212.8052002577915 21.456798132183877 0.288796754118644
0.9370432260904412 13.01472403652218 4566.539692310124 22.443527806201132 0.29295703286668606
0.9623196181599667 13.020921040206863 4005.772167345896 23.47351108925467 0.29719260850886137
0.9878429984163973 13.027321207813861 3517.6056601582186 24.549186346542466 0.3015097164886685
1.01358239939446 13.033775770495449 3093.0616741601903 25.672516008321654 0.3059101404864973
1.0395444975474213 13.040229814195662 2722.30411647011 26.845420060319594 0.3103948378046775
1.0656930692325508 13.046552874316717 2399.036256577978 28.071013977826986 0.3149726893915394
1.0920221853043133 13.05268393784295 2116.356069572587 29.35137542714405 0.31964429976490555
1.1185206608445117 13.058520585670752 1869.2277649247117 30.689213347065863 0.32441403667111574
1.145148609125652 13.06399068718555 1652.4592100320283 32.08797514956582 0.3292902817898813
1.1719096925211607 13.068995765668264 1462.6207173920711 33.549548335053665 0.3342703873810648
1.1987638690474394 13.073451541313782 1295.8529236126174 35.07849933344212 0.33936808596723783
1.2257077448267981 13.07731814985374 1144.3071858635697 36.676881536195246 0.3445803261028065
1.2527017526341635 13.080484581000846 1020.4993447580431 38.34969380785733 0.3499212241671089
1.279740963853821 13.082928523451166 907.0122520810337 40.09921158065792 0.3553875807385785
1.306784243009029 13.084523458187139 807.0271477417763 41.930902235957674 0.3609939344674858
1.3338196467398724 13.085238408380564 718.7967564521953 43.84819443947968 0.3667419161737362
1.3608258592261009 13.085036242563605 640.8450552211909 45.85585910939685 0.3726397436056004
1.3877563083350597 13.083778351536287 572.0072507477626 47.959185812719966 0.3786971383464079
1.414611598837422 13.081492922054654 511.002756953605 50.162878288235085 0.3849194895221662
1.4413334842640018 13.078045435203013 457.03674722261525 52.4722527708598 0.3913142760780905
1.4679263278217807 13.07345261357377 409.16398438839224 54.89367381890107 0.3978929298253096
1.494335623604916 13.067590140001053 366.66978469182203 57.43332795502662 0.40466450617697597
1.5205455708594169 13.060452174253578 328.958559368867 60.09783951150671 0.4116387701729337
1.5465285122072059 13.051970982506994 295.3957835946608 62.89431003955889 0.41882625490081893
1.5722442552668274 13.042097711189028 265.5604731435726 65.83036149142475 0.4262383246856873
1.5976679903851818 13.030776850381 239.00759252358796 68.91418355811273 0.4338872436063181
1.6227548991608514 13.017961770446481 215.3149058689527 72.1545855933383 0.441786249964689
1.6475070095307824 13.00362991271908 194.1692232720589 75.56105360817043 0.44994963741083993
1.6718565189038892 12.987702758521676 175.2995008307276 79.14358439572973 0.4583918893243186
1.6957934966627304 12.970163177535406 158.42495743694806 82.91223637489398 0.467125731907792
1.7192587193192412 12.950923907518543 143.33667092686204 86.87980195634312 0.4761729680293423
1.7422607712569833 12.930030267084005 129.82697367881934 91.0579318116693 0.48554824659713114
1.7647411346498458 12.907390246221174 117.72353700070724 95.46054985700464 0.49527284652077214
1.7866690474638114 12.882965057192225 106.8635806145275 100.10148031037772 0.5053649243592193
1.808008743551742 12.856719168548679 97.12158623341443 104.99715809367827 0.5158498461726462
1.8287209016391517 12.828594679717028 88.36305926368105 110.16411392717107 0.5267501343911273
1.8488017413922608 12.79864085934611 80.49522009377239 115.61987723141661 0.5380888153045353
1.8681895076044928 12.766746468886318 73.40751874291865 121.38482335689115 0.5498958649135928
1.8868630163477662 12.732905919787452 67.03445228214312 127.4802729780818 0.5622007335166217
1.9047877803686326 12.697102896441047 61.28008613719766 133.92874997458912 0.5750330444293588
1.9219330554559086 12.659300587563182 56.09651338622762 140.75571847019836 0.5884283532770253
1.9382513219533832 12.619422475426122 51.41276911756514 147.98894252588045 0.6024252756166188
1.9537500971829533 12.577597623774395 47.180293460746306 155.65702683764496 0.6170599788545141
1.9683697512216565 12.533682829444315 43.355727303830925 163.79347537833038 0.6323796133983158
1.9820902310839643 12.487697538999187 39.894921410617464 172.43191256439445 0.6484252911325034
1.9948844978156481 12.439635696026185 36.75960442927796 181.61184854658714 0.6652509792851993
2.006718147074355 12.38947857928129 33.91808607150622 191.37513353165684 0.6829106427610102
2.0175771953656754 12.337233356226912 31.3397976697549 201.76776718985354 0.701463469890804
2.0274186295280505 12.282864274374143 29.003119866623788 212.8397985690594 0.7209725383161513
2.036234176639049 12.226414882961345 26.879749589788922 224.6463981911891 0.7415072257700249
2.0439849832672268 12.167838122734889 24.951595417689425 237.24896187410144 0.7631455205102807
2.050651147918511 12.107151259433097 23.1958628245102 250.71410365628012 0.7859693014769565
2.056223967625144 12.044400090769647 21.601460295363538 265.1149164694017 0.8100668250282371
2.0606841832004488 11.979590165747318 20.149315600145243 280.5333015295375 0.8355384424277059
2.0639970918354407 11.912713634109771 18.828024162982185 297.0585580426484 0.8624898702723579
2.066165696117233 11.843828615041984 17.624790690921195 314.79113533234164 0.8910419997930888
2.06716626502885 11.772954878534433 16.52925951721229 333.84049780458446 0.9213210824297674
