M[M_sun], R[km], Lambda[1], P_c[MeV/fm^3], rho_c[fm^-3]
0.24162668629717493 15.618656898711224 2160425.4255784233 3.5677272577965504 0.1711233750220791
0.25364532430395687 15.27724407107649 1723151.951185742 3.784844489851556 0.1738884832182928
0.26604245050017367 14.981216324223091 1382983.4432752633 4.011453797403867 0.17666729329290254
0.27881940721860726 14.723435289361024 1116399.0186019372 4.247810499338044 0.17945846859742018
0.29197508777379794 14.498327439240901 905802.478537021 4.49454011487524 0.18226858146202385
0.3055124214550488 14.301140620773031 738555.0690279864 4.751799408407876 0.18509336084480185
0.3194301741456191 14.128048123397877 605039.4750955713 5.020268823666465 0.18793938499764998
0.33373211881986165 13.975774940891423 497622.2978721846 5.300174906916571 0.19080332557135846
0.34841331040066076 13.84192357102562 410944.0640819372 5.5922434830960395 0.19369142252254307
0.363478663198546 13.723895791670023 340606.8205841633 5.896645382930495 0.19659880429123816
0.3789323873874725 13.61993121139251 283247.53521950543 6.214243279919062 0.1995331217908084
0.39476748740765105 13.528388754871365 236361.74151305057 6.545291404444777 0.20249049645495737
0.4109948352784801 13.44779967926588 197825.18231133063 6.890498603499461 0.20547474811078684
0.4276053557553186 13.376959423876833 166041.19317017993 7.250567277711167 0.20848889964364375
0.4446030329628476 13.314840103093369 139765.69020890942 7.625751957335306 0.21152842615005157
0.4619841804790139 13.260485355241773 117946.54512623424 8.017010605794042 0.21459962728713433
0.4797545299136253 13.213082360354177 99797.63909124401 8.425044372996815 0.21770408512778328
0.4979135306096763 13.171911528493286 84619.45676305883 8.85028824640394 0.2208391817029334
0.5164550661988592 13.13632810608167 71919.63948327799 9.293627383086939 0.22400849127912378
0.5353755930649712 13.1057913972347 61256.15359630719 9.755941423934646 0.22721485392153695
0.5546852554636161 13.079768406578832 52288.65334835457 10.238036974013333 0.23045957830033467
0.5743697378833864 13.05779848211151 44714.63114776627 10.740386555708302 0.23373937811651102
0.5944301457824452 13.039483311669395 38315.83070520965 11.264242331705073 0.23706053070812313
0.6148702430401939 13.024493954168602 32890.01973076468 11.810537476517435 0.2404245896677242
0.6356764086722912 13.012408557534005 28281.244052974318 12.380251449078179 0.24383318875998045
0.6568503015735646 13.003007589483099 24360.89049640347 12.974061648098301 0.24728414575724375
0.6783846327440747 12.995961886231541 21019.15281676114 13.593318364847129 0.2507825069857643
0.7002765810111163 12.99104911255068 18165.314672579098 14.239208755525148 0.2543307839118076
0.7225142538496363 12.988004658545892 15722.943398912617 14.912923100115668 0.25793096228779694
0.7451043070872897 12.98664679611677 13628.001880280612 15.615474674740348 0.26158277168948285
0.7680297361471927 12.986758722131054 11831.548859399212 16.348162942503276 0.2652884368998326
0.7912773458182961 12.988138450221957 10285.510957421244 17.112588906946332 0.26905248954244726
0.8148536128681764 12.990683850496595 8952.053861945662 17.910208393666203 0.2728773637319944
0.8387405479672391 12.994135801074693 7803.932828100071 18.742362652350696 0.27676392176468834
0.8629231350522845 12.99841842505624 6810.950340010631 19.610445043328994 0.2807130782409234
0.8874078350736583 13.003380302463265 5952.37355872791 20.51651910183496 0.2847309838542241
0.912168257352106 13.008862631466126 5208.757045927736 21.462379985561114 0.2888206539983732
0.9371923213450465 13.014763885493352 4563.035826335606 22.449481065313893 0.29298175931576875
0.9624785457767066 13.020967780310958 4002.5013327663464 23.479910468320856 0.29721859828868996
0.9880022347758528 13.027360058650173 3514.6358796968225 24.55606196951666 0.3015370300747335
1.013747481542546 13.033819634340961 3090.5730713234802 25.679841259366707 0.30593841004104383
1.039715440112602 13.040276360171827 2720.029416562345 26.853284498380294 0.31042454823552507
1.065870776748492 13.046600607788168 2396.9212098411745 28.079454419331853 0.3150039142548512
1.0922037469905863 13.052735556911342 2114.421040185312 29.360361956136476 0.3196766457515213
1.1187065827359117 13.058562809816177 1867.3508304963618 30.698853261319055 0.32444804209329475
1.1453392677652592 13.064014714841932 1651.1200292207009 32.09823698468602 0.32932554044460416
1.172107122159616 13.069024995883092 1461.2217299952142 33.560552469961564 0.3343074724502782
1.198965809356314 13.0734857529458 1294.6718070239506 35.090297709794605 0.3394070999992885
1.2259155991070565 13.077344635266234 1148.4042480792352 36.68943991399503 0.34462083748559347
1.2529139980786164 13.080512368175821 1019.5508585634398 38.36308735649781 0.34996346493050956
1.2799584634346695 13.082949473997076 906.1555821414493 40.11354386741839 0.3554319200457078
1.3070117965968577 13.084552436050881 806.2871696603962 41.94616317685401 0.3610400706038378
1.3340447385000838 13.085239328909662 718.1173475340687 43.86455514838141 0.3667905486617277
1.3610548740408783 13.085032931630298 640.2076915671958 45.873285302893976 0.37269041660912056
1.3879951624339208 13.083781036893333 571.4115892775534 47.97775192895335 0.37874998350648087
1.414839936884025 13.0814526181092 510.511687684919 50.18278792724849 0.3849752785247693
1.4415727285380373 13.078010624112236 456.58370389317054 52.493474324407494 0.39137254251310344
1.4681685171578047 13.073407036408994 408.7540594733117 54.916301261216724 0.39795383883056656
1.4945794824229608 13.067533445898599 366.2944672885848 57.45746287275173 0.40472823565694077
1.5207922321178724 13.060377409844053 328.63196348555994 60.12359178528822 0.411705511847184
1.546776708079941 13.051883728539902 295.09631824357456 62.921798593660945 0.4188962154564456
1.5724942631817664 13.041993137471565 265.28685218878843 65.85971511892939 0.4263117270447586
1.5979076607879772 13.030649184857126 238.75734950473048 68.94554183020608 0.4339643283208714
1.6230176019898401 13.017835426989697 215.08574223203058 72.18809986222303 0.44186727675319576
1.6477584371338865 13.003472474742335 193.9557245416157 75.59688811432758 0.4500348868517704
1.6721069619241686 12.9875302711007 175.12063784294816 79.18173035826844 0.45848088341850324
1.6960434476255952 12.9699677694511 158.24878179142772 82.95306600071 0.467219558269002
1.7195234382282272 12.950743488256741 143.1824947667364 86.92352544422508 0.47627198021702954
1.7425045177813705 12.929795528505801 129.69059665798306 91.10456736048998 0.4856519935273287
1.7649868427549782 12.907130114111503 117.59307838887159 95.51054676566243 0.49538255090213457
1.7868970220065812 12.88264998980088 106.75160888023575 100.15488211390127 0.5054801631344514
1.8082481774656087 12.856409532651147 97.0187480305816 105.05424173132344 0.5159710633968377
1.8289516946394753 12.828257507002355 88.27537946612455 110.2251814740393 0.5268778103871873
1.8490326589004948 12.798276884225265 80.41214086645823 115.68550797736215 0.5382243857782295
1.868404312102942 12.766324876060168 73.33130300633522 121.45513672078036 0.550038997155498
1.8870797154536059 12.732491071514493 66.95947954168271 127.55551008964343 0.5623514932581266
1.9050008743522584 12.696656746983974 61.21374942660029 134.0093730313549 0.5751922193766514
1.9221395065220814 12.65882143995551 56.035382568643 140.84231395131135 0.5885970742048305
1.9384494923586217 12.618915451140435 51.35714579224477 148.0820290564744 0.60260433218956
1.953940810897119 12.577053651390358 47.13247180062422 155.7568674053545 0.6172491867245055
1.9685504426052505 12.533105852836718 43.310349109869755 163.9006750696557 0.6325798633126031
1.98226197395066 12.487087181603348 39.85269398127562 172.54745852793687 0.6486386341206501
1.995043855679095 12.438985973614376 36.72005498888859 181.73615968016227 0.6654774137386779
2.0068762165387266 12.388809098893601 33.88037705438006 191.5090171742021 0.6831513269909066
2.017715477204756 12.336516732959163 31.30625213693369 201.91211393541587 0.7017196711255448
2.0275464610185963 12.282115634585498 28.9724536497938 212.99522786385765 0.7212444525683616
2.036349078265971 12.225625094841698 26.851999669969878 224.81434882906925 0.7417975324459384
2.0440854965965616 12.167010829110906 24.925342840538097 237.43025214256244 0.7634546370716144
2.050737366617794 12.106280813466386 23.1728992011272 250.91010411187077 0.7862991910360233
2.0563017944892312 12.043512168828165 21.579632503547653 265.3272560445135 0.8104200007358335
2.0607414964574318 11.978640621323903 20.130241953016615 280.76306132605674 0.8359153019701218
2.064036740501208 11.911721802124475 18.80975900476572 297.30783154904015 0.8628937380178173
2.0654177877586033 11.848510823981234 17.740275529266864 316.22888185229067 2.0933269363505826
