M[M_sun], R[km], Lambda[1], P_c[MeV/fm^3], rho_c[fm^-3]
0.24162668629717493 15.618656898711224 2160425.4255784233 3.5677272577965504 0.1711233750220791
0.2536442789420917 15.277299273596856 1723197.7708677016 3.784824184323837 0.17388823011968552
0.26604037839197087 14.9812650518749 1383022.0550151675 4.011411110849008 0.17666677745107895
0.2788161465156303 14.723486077510744 1116395.7046348325 4.247743987312142 0.1794576971581512
0.29197061676633723 14.49841185611555 905889.5360851248 4.494448031750925 0.18226755609506323
0.30550561761225165 14.301229416901007 738642.4390746658 4.751678627189175 0.18509205617712546
0.31942220737068394 14.12813952822795 605099.9025604187 5.020118454334296 0.18793782485779148
0.33372156772981343 13.97591292697606 497656.9056327028 5.299990990254504 0.1908014738357444
0.34840237724122985 13.84201603528525 410999.7011739383 5.59202555958749 0.19368931405264916
0.3634659968108885 13.72396562710876 340643.585327211 5.896388556146398 0.1965963921197316
0.37891855787597223 13.619995205396334 283296.3360814677 6.213944441435431 0.19953039674366266
0.39475216683035114 13.528438243641242 236403.20697473007 6.544950864211801 0.20248751037716148
0.41097757615632063 13.447869387617265 197866.22718840657 6.89010978679371 0.20547143678456006
0.4275848450766934 13.377046046807179 166075.84932379905 7.25012653538424 0.20848525349532565
0.4445803871642567 13.314916579361235 139800.97373016027 7.6252605072576465 0.21152451389143204
0.4619621255211227 13.260580597638938 117978.49856742848 8.016459875099061 0.214595366939962
0.47972730628402427 13.213140273549516 99808.58117232124 8.424430066526448 0.21769946640191082
0.4978843244929963 13.171977076174763 84640.220947137 8.849612628958058 0.2208342899439561
0.5164231434347032 13.136393261613165 71935.5191591704 9.292879520017253 0.22400322627648936
0.5353420859275557 13.105841468567641 61275.329951140666 9.755116243765752 0.2272092043013074
0.554649357970586 13.079813741736846 52299.50207729958 10.237132427561143 0.2304535750175559
0.574331065168702 13.057852124007965 44728.24223179101 10.739399926594709 0.2337330436519823
0.594388844046741 13.03954145045115 38327.009643484635 11.263162111438717 0.23705378147235096
0.614826091323042 13.02449854035653 32900.88156359203 11.809357282686117 0.24041741212011986
0.6356310726533689 13.012459669260272 28291.45347178013 12.378964501045129 0.2438255686451814
0.6568012937785921 13.003012439786332 24369.5370040768 12.97267385579761 0.247276213705544
0.6783333583537486 12.995974961454376 21027.396436301904 13.591810019185619 0.25077410892123103
0.7002201790199727 12.99106199217963 18171.60319604469 14.237571767721352 0.2543219031730788
0.7224560663080902 12.988005889786916 15729.110923333847 14.911148861615306 0.2579215812200413
0.7450444015474182 12.986646779593487 13632.99765528714 15.613571336772267 0.26157304308832396
0.7679647687839154 12.986755159463995 11835.5432176684 16.346104726922864 0.2652781772113826
0.7912105191147746 12.98813216977232 10288.302934088992 17.110365482325605 0.2690416777814314
0.8147863127226841 12.9906570710854 8956.09884385186 17.90780874354668 0.27286597756376046
0.8386677986102286 12.994130057881664 7807.084529208814 18.739797420769214 0.2767521358528579
0.8628495541064604 12.99839534823759 6814.23357935992 19.607680871951874 0.2807006771472259
0.8873287662655798 13.003355974205354 5955.058051037458 20.51354268457903 0.2847179407323078
0.9120855827874335 13.008849834157283 5211.138091475812 21.459177105081906 0.28880694019167374
0.9371057613345478 13.014735433844066 4565.128543969543 22.44606506467452 0.2929675711938886
0.9623899857689554 13.020947337020399 4004.3698627753542 23.47623847356323 0.29720368522692325
0.9879111075755747 13.02733899259627 3516.3874492822993 24.552116694005985 0.30152135736803976
1.0136527981082235 13.033793477476545 3091.6992880234393 25.67563797609803 0.30592218876140337
1.0396175014050204 13.040251920813699 2721.2742925420202 26.84877181437223 0.31040750012793955
1.0657686402519218 13.046575955337211 2398.2355156990698 28.074611207284637 0.3149859971074985
1.0921011274594312 13.052704234200512 2115.6514346800964 29.355205382975562 0.3196580852542941
1.1185991686444114 13.058544052594987 1868.503091581424 30.693321754060182 0.32442852934300637
1.14523051830126 13.06399277142846 1651.9764877997052 32.09234859895931 0.32930530853122986
1.1719934334305129 13.069011839297243 1461.9515319687637 33.554238125648205 0.33428619245890606
1.1988503524191363 13.073461844038883 1295.434540982366 35.08352759943817 0.3393847130797208
1.2257959268462753 13.077331194425124 1149.0127243391146 36.68223368623593 0.3445975913103427
1.252792394902236 13.080491463238095 1020.1169421673762 38.35541576227649 0.3499393078157559
1.2798339381776171 13.082939884858082 906.6624906523055 40.105319697554016 0.355406477211665
1.3068777079914362 13.084528757214589 806.6799957438627 41.937406105781854 0.36101359665129623
1.3339163609525841 13.085236944803913 718.5430861322621 43.85516697921958 0.3667626421677752
1.3609239087594824 13.085032223767469 640.5897503568046 45.86328570961579 0.37266133915020966
1.3878549329829513 13.083773062002818 571.7758282004282 47.96709819364158 0.37871965953668296
1.4147119831674226 13.081484135144686 510.7821253385972 50.17136320883884 0.38494326520475547
1.4414348810211723 13.07802923491774 456.8343851478654 52.48129676193449 0.39133910748909095
1.4680299761161217 13.073430721029787 408.9911215858362 54.90331692494172 0.39791888733249625
1.4944390647219816 13.067566289395263 366.5064677309631 57.44361346412112 0.40469166558780273
1.5206508036826891 13.060421450460995 328.81698052070755 60.10881424573785 0.4116672131812386
1.5466348149007318 13.051933595357138 295.2737382657129 62.90602467438175 0.41885606957779786
1.5723516652881169 13.042050664577694 265.4508831305559 65.84287090724725 0.42626960601988795
1.5977750728422395 13.030723523522985 238.90093624012275 68.92754722769816 0.43392009409796223
1.6228623900411978 13.01790125427651 215.21928210605262 72.1688680090942 0.44182078028026295
1.647614422158419 13.00356331736678 194.0831763390108 75.57632475389234 0.4499859671046119
1.6719626392747853 12.987628919165797 175.2198484123986 79.15984053099727 0.4584298147019155
1.695899402725591 12.97007729534411 158.34851480914432 82.92963609716381 0.4671657164188919
1.7193802762006252 12.950867332455598 143.26624326285415 86.89843483090898 0.47621516232268524
1.7423622598108173 12.929920810736322 129.77914553339562 91.07780559446967 0.48559245844858545
1.7648456766993068 12.907278939641996 117.67106475868789 95.4818559907316 0.49531959693559763
1.7867717085302364 12.882843078853885 106.81096719895034 100.12423734662183 0.505414033056148
1.808110808599984 12.8565859816041 97.08254650455555 105.02148403420551 0.515901502358345
1.8288207484718302 12.828451955934927 88.32601757617147 110.19013748306615 0.526804542724036
1.8488992778415827 12.79848792091814 80.4540551070035 115.64784522684062 0.538146587532068
1.868277373341101 12.766547381612634 73.38300508057247 121.41478667610107 0.5499568592511727
1.8869559732064152 12.732728249928492 67.00272504067176 127.51239960633835 0.5622652110390102
1.9048795522747795 12.696912235973883 61.25429939313112 133.96310635957056 0.575100874600875
1.9220209828582526 12.659096003458464 56.06983025617715 140.79261973691513 0.588500250977432
1.9383340942792868 12.619208919513353 51.38871671786743 148.0286096453554 0.6025015772944912
1.9538321356783497 12.57736425368967 47.1585206714413 155.69957186526113 0.6171406059406641
1.9684478483324892 12.533436447299763 43.33869902080621 163.83915612229262 0.6324649454076707
1.9821625381786354 12.487436542009855 39.87575202793712 172.4811496070662 0.6485162019483298
1.994954218278911 12.43936012496496 36.74345534177748 181.66482036828904 0.6653474681929251
2.006788903029693 12.389201266585076 33.900798713311744 191.43218410505642 0.6830132032610294
2.017636056453557 12.336927786566639 31.32459180911898 201.8292759556955 0.7015726418828341
2.0274729045399895 12.28254249842806 28.99002490012064 212.90602945063708 0.7210884052810037
2.036283032974868 12.226079381336612 26.86784901144551 224.71796417535512 0.7416309292774004
2.0440283189884987 12.16748448718079 24.94079295853543 237.3262115949672 0.7632772383806371
2.050688418515391 12.106778813495907 23.186388345323472 250.79765583463214 0.7861099834159098
2.0562608454285054 12.044034635548874 21.592940255950158 265.205440811559 0.8102174627929403
2.060708670637361 11.979185671450722 20.140441287632576 280.6312027507783 0.8356990232168505
2.0640142068599 11.91229086195198 18.820266283399913 297.1647733671647 0.8626619581298546
2.0661758107304142 11.843391192320423 17.617994926470914 314.9065176156893 0.89122670413478
2.067167781142784 11.772500918457558 16.522154516419707 333.9658080062291 0.9215189998835569
