M[M_sun], R[km], Lambda[1], P_c[MeV/fm^3], rho_c[fm^-3]
0.24162668629717493 15.618656898711224 2160425.4255784233 3.5677272577965504 0.1711233750220791
0.2536449614719015 15.277275707227322 1723214.542615701 3.7848384256793195 0.17388840763131133
0.26604180214340273 14.98123039447578 1382923.8853649537 4.011441049184977 0.17666713923820074
0.27881753496353423 14.7234796339028 1116453.5666941493 4.247790635658384 0.17945823820867005
0.29197364265771725 14.498353776043428 905786.7023823181 4.494512614370558 0.18226827523752168
0.30551014820218014 14.301170426535075 738646.0755002067 4.751763337162917 0.18509297120651327
0.3194286298329972 14.12804880396904 605042.2875629994 5.020223915839399 0.18793891906161134
0.3337255866231871 13.975970807191672 497669.3790568864 5.300119980037172 0.19080277254882308
0.34841003160656864 13.841949014188563 410958.22296346904 5.592178399890097 0.19369079282462182
0.36347382281574114 13.723915773056381 340622.5691636828 5.896568681012624 0.19659808389059366
0.37892767930987764 13.619958392665572 279341.5011694929 6.214154030894151 0.19953230794716403
0.39476311008204856 13.528380869789133 236380.26720749604 6.54518970084139 0.2024896046517505
0.41098944076608857 13.447824802566773 197836.32595683454 6.890382481674176 0.2054737591685941
0.4275988215983952 13.376996870127991 166050.3736881137 7.250435647760863 0.20848781070279876
0.444595859801099 13.314865210239818 139776.61863843197 7.6256051829473135 0.21152725773154754
0.46197912840123845 13.260509931125094 117961.4019311331 8.01684612652944 0.21459835490704687
0.4797469911760862 13.213091155226644 99790.20883491905 8.424860905996214 0.21770270571242092
0.4979046708525473 13.171933007542558 84624.12930631993 8.85008646803645 0.2208377207413395
0.5164447351869874 13.136359928000626 71926.49034250427 9.293404027499387 0.22400691884186283
0.5353652710321299 13.10580445733508 61260.03260315677 9.755694976388726 0.2272131666111853
0.5546733907030263 13.079794398527765 52291.65779824964 10.237768464700702 0.23045780647811476
0.574358798959594 13.057819758352776 44316.78549846439 10.740091888734955 0.23373748626326574
0.594417598263387 13.039494503307504 38318.88253907358 11.26391971204648 0.23705851497465802
0.6148567148109921 13.024479592928156 32893.09501339251 11.810184997867784 0.24042244600943669
0.6356631923852019 13.012428522993526 28284.76643538854 12.37986708618402 0.24383091291876327
0.6568356756025736 13.002998993377078 24364.01374405204 12.973647166042785 0.2472817767477808
0.6783694554887404 12.995966175316514 21021.927143029337 13.592867876976515 0.2507799987899937
0.7002596016974616 12.991045934955428 18166.396339031107 14.238719845849072 0.25432813155295364
0.7224960824966131 12.98800367584645 15724.240899020466 14.91239319738895 0.25792816049233247
0.7450872286285263 12.986649956995384 13533.17916667202 15.614906213490027 0.26157986609264644
0.7680102105603692 12.986761744399905 11832.812696031271 16.347548223296197 0.26528537267876223
0.7912566131778537 12.988138208253552 10286.25605637333 17.111924843917972 0.26904926042881094
0.8148344414641573 12.99067221911084 8953.217229650538 17.909491696333298 0.27287396305439604
0.8387188921594975 12.994145720186598 7805.183032696911 18.74159649982519 0.2767604016902516
0.8629028568454146 12.998417432024887 6811.824677429776 19.609619471998045 0.280709374423022
0.8873859667860562 13.003367315496194 5953.249268546185 20.515630137301393 0.28472708827380183
0.9121447846840346 13.008854633674863 5209.299772032259 21.461423381230905 0.28881655809565143
0.9371657807834229 13.014754615885009 4563.656516851999 22.44846080649958 0.2929775217415014
0.9624520703914692 13.020962676082902 4003.0954285207767 23.478813749077204 0.2972141441859744
0.9879749274955111 13.027348644659654 3515.2792816083006 24.554883626438517 0.3015323490770697
1.0137201262805964 13.033805903154517 3090.7191982941454 25.678585854255484 0.3059335651909423
1.0396860044921543 13.040262293013056 2720.347632462798 26.85193668060808 0.3104194564226826
1.0658402429921137 13.046588649711854 2397.286167426352 28.078007878258845 0.31499856287041783
1.0921747514245344 13.052724604541519 2114.8321951939306 29.358821819312862 0.31967110220460515
1.1186746298339731 13.058554322016036 1867.652955689389 30.697201137254535 0.3244422141186022
1.145307782134825 13.064011413253368 1651.3705705569623 32.09647826641893 0.3293194976618652
1.172073547382728 13.069025538980439 1461.382385405243 33.558666523523605 0.33430111661633305
1.198931180372432 13.073476141521603 1294.8825814738723 35.08827563168664 0.33940041353517203
1.2258798966068456 13.077344263914174 1148.5735133051678 36.68728757314193 0.34461389436717654
1.252877514614024 13.08050229955124 1019.694497308864 38.3607960162356 0.34995624971968675
1.27992161039025 13.08294237885404 906.3152908519456 40.11108747832971 0.35542432079849395
1.3069677410720666 13.084523368166783 806.4454065826252 41.94354761563943 0.36103216336603033
1.3340065380819237 13.085238363866207 718.2853343543726 43.86175108337832 0.36678221353038293
1.3610159832180297 13.085031082596968 640.3451350053044 45.87029861071256 0.3726817317139685
1.3879488045111006 13.083770346802691 571.5371831932014 47.97456984958377 0.37874092628139744
1.4147994960431731 13.081455616450745 510.59649834018535 50.1793755595716 0.384965716694488
1.441530723379559 13.07801607410028 456.6736363350599 52.48983708661492 0.39136255602088027
1.4681272914542176 13.073411973517356 408.829041126261 54.91242304410935 0.3979433993675957
1.4945374064231451 13.067541291008569 366.3478970203283 57.45332626207176 0.4047173127256736
1.5207500845181656 13.060390733450829 328.69660175782775 60.119177944853924 0.4116940725815503
1.5467343167874605 13.051896700367188 295.14868750654784 62.91708713683914 0.4188842244242567
1.5724512744531256 13.042011771775474 265.33124283065314 65.85468396714622 0.42629914603037894
1.597865091359391 13.030669510455596 238.80388664568494 68.94016705703797 0.43395111608601933
1.622963359872563 13.017847515280785 215.13490769267494 72.18235552143301 0.4418533887734847
1.6477158353692452 13.00350010467158 193.99075301619106 75.59074605000792 0.4500202750263105
1.6720636600771244 12.98756093648904 175.1435854449867 79.1751920764134 0.45846562968173826
1.6960009331239336 12.969999303912813 158.29003087796164 82.94606769236178 0.4672034761768002
1.7194809325682736 12.950780874231217 143.2095842642498 86.91603107387058 0.476255009155477
1.7424614997270087 12.92982768796702 129.71682689729136 91.09657380903134 0.48563421081765373
1.7649443497086137 12.907172993586732 117.61433326808844 95.50197700580107 0.49536374693546437
1.786870104000276 12.882732906188895 106.76700243892975 100.1457286830051 0.5054604104276879
1.8082073421122566 12.856463080648604 97.03561019769428 105.04445715132343 0.5159502858206985
1.8289202038926795 12.82832899332143 88.28715628108195 110.21471395710327 0.5268559255937147
1.8489929910149463 12.798338274320741 80.42428925815648 115.67425820682878 0.5382011476343049
1.8683663829945227 12.766391592609073 73.34598374699455 121.44308422409307 0.5500144626889899
1.8870428407993964 12.732561669224703 66.97485690510912 127.54263301762713 0.5623257208180121
1.9049646157970186 12.696732948878585 61.226947389616974 133.99555316140265 0.5751649346623341
1.9221035787596614 12.658903860166081 56.04561294835949 140.827470221606 0.5885681529745793
1.9384145236068746 12.619003602550643 51.36475500166887 148.06607254810064 0.6025736390518173
1.9539080893343435 12.577145636173679 47.14040040737126 155.73975303110106 0.6172167532721222
1.968521025378102 12.533205972920886 43.320310734196084 163.88229908583898 0.6325455368221183
1.9822322180594398 12.487191798926034 39.85978513036026 172.52765167926978 0.6486020629402224
1.9950165428724802 12.439099583018322 36.727049254101644 181.714850146213 0.6654385981271158
2.006849165990953 12.388927661612769 33.88574290533209 191.48606652940194 0.6831100683414978
2.0176918059609332 12.336639416548453 31.31163921343255 201.88736947739662 0.7016757521534002
2.027524786593343 12.282243720786134 28.977471952690326 212.96858338510305 0.7211978396468689
2.036328871345569 12.22575980319481 26.85638454064203 224.78555762268812 0.7417477661602871
2.0440682328896806 12.167153521015855 24.930545938550804 237.39917390385511 0.7634016458197228
2.05072292232937 12.10642977805535 23.176688237292474 250.87651423211312 0.7862426720624568
2.056289906505187 12.043667216847414 21.583905841760664 265.2909053440107 0.8103596213523533
2.0607305716894144 11.97880336233545 20.132289489997564 280.72367295631545 0.8358506958761832
2.0640305762164424 11.911893345295299 18.8131987450807 297.2650974608964 0.8628245011378829
2.0661851158278792 11.842976722131683 17.61095055297082 315.01550135786334 0.8914011656705483
2.0671718345533976 11.77207168125365 16.51639812527007 334.08417032709707 0.9217059437146523
