M[M_sun], R[km], Lambda[1], P_c[MeV/fm^3], rho_c[fm^-3]
0.24162668629717493 15.618656898711224 2160425.4255784233 3.5677272577965504 0.1711233750220791
0.2536439797663603 15.277294524038883 1723211.2929855632 3.784819766923005 0.17388817505891516
0.26603994913100926 14.981260808108367 1383033.9387008995 4.011401824572282 0.1766666652319051
0.27881497422635876 14.723546155167343 1116446.3155282068 4.247729517971267 0.17945752933560188
0.2919695051082972 14.498434141728401 905898.824781854 4.494427999639677 0.18226733303285528
0.30550447951620174 14.301245028046809 738659.3716517249 4.751652352102133 0.18509177235603863
0.31942095547455734 14.128149084212858 605116.7210820453 5.02008574270241 0.18793748546198513
0.33371938254922573 13.975995377580656 497697.439072402 5.299950980844892 0.1908010710073772
0.3483999983684961 13.842035070524195 411010.5716742352 5.59197815248602 0.1936888553759012
0.36346242300349685 13.723987043678992 340658.8944325252 5.896332686257966 0.1965958673779161
0.37891590421758603 13.620008907466195 283307.19345018285 6.213879432628165 0.1995298039416161
0.39474819869926386 13.528476061114969 233287.98476656227 6.544876783961054 0.20248686079343994
0.41097252746388546 13.447876567773967 197864.81405126065 6.890025204949457 0.20547071645008103
0.42758073628352655 13.377061046820439 166084.9183130661 7.250030658210357 0.20848446032803736
0.4445754907568289 13.314931454937831 139802.6225342614 7.625153599729791 0.211523662838769
0.46195680038057096 13.2605757424741 117980.77914856358 8.016340072450232 0.21459444016961704
0.4797222655021287 13.213148635485206 99812.16321948374 8.424296434518421 0.21769846167602458
0.4978779825197469 13.171992980118935 84647.46032670443 8.849465660297104 0.2208332258280559
0.5164167758661432 13.136399849438446 71938.26826673976 9.292716836235506 0.22400208097252372
0.5353349456874131 13.10584499347997 61277.19164635042 9.754936741783414 0.22720797533572037
0.5546415284029952 13.079824254457144 52301.8857655593 10.236934937268787 0.23045225980925002
0.574323636978896 13.057854140334499 44731.29663815451 10.739185306079293 0.23373166572179221
0.5943800889243082 13.03952262980885 38329.289512140975 11.262927133038316 0.23705231332305302
0.61481690636602 13.02450388374299 32903.31933023809 11.809100558208083 0.2404158508069581
0.6356206219793956 13.012458547522296 28061.123130834203 12.37868455568879 0.24382391106795376
0.6567906777322408 13.00301489720597 24371.615276684508 12.972371975119804 0.24727448827938167
0.6783224921158564 12.995973799411226 21028.44562555273 13.591481916302191 0.25077228213228014
0.7002095844770007 12.991068992073012 18173.337666151714 14.23721568333029 0.2543199713978786
0.7224445166580676 12.988002411205004 15730.512673886951 14.910762923373314 0.25791954061907535
0.7450318218169775 12.986651147062878 13538.012606608298 15.61315731770937 0.26157092689750416
0.7679517033045984 12.986759357667669 11837.052833569745 16.345657020205874 0.2652759455056871
0.7911958061344324 12.988131968569988 10290.269499712234 17.109881840918572 0.2690393259970437
0.8147686733980931 12.990661777377388 8956.588696834606 17.90728677143441 0.27286350084341054
0.8386518140380661 12.994128619033381 7807.707238756866 18.73923943313618 0.2767495721883947
0.862831998111986 12.998407717272833 6814.993139877947 19.60707961340469 0.28069797967931864
0.8873116912535456 13.003352549032975 5955.618977338394 20.512895261161074 0.2847151036225057
0.912067638602414 13.008849897753711 5211.369915538877 21.45848042466029 0.288803957207858
0.9370876456042971 13.014735772735781 4565.560760751044 22.44532202941333 0.29296448504843375
0.9623661078023111 13.020935264349362 4004.643580501135 23.47543975864091 0.29720044140830243
0.9878903145776023 13.027327873831721 3516.6903137648883 24.551258539801626 0.30151794832877077
1.0136311730416063 13.03378926890679 3075.400741735344 25.67472370447233 0.30591866041112104
1.0395961881757083 13.04023805204914 2721.580144888477 26.847790247859216 0.3104037919464036
1.0657467379512073 13.04656844614386 2398.4770241108718 28.073557751035228 0.31498209991475407
1.0920785452809634 13.052700533697141 2115.8906534087714 29.354083770700093 0.31965404813877585
1.1185757437341024 13.058535110753636 1868.6845800597537 30.69211859447773 0.32442428511961646
1.145206625036723 13.063991456505924 1652.1798883555305 32.09106781901433 0.32930090789749067
1.1719689480919113 13.069007233327245 1462.1091819171747 33.55286470153865 0.3342815638780509
1.1988246066737465 13.07346480544303 1295.5630368803504 35.08205504868598 0.3393798437535927
1.225770532754098 13.077331790487907 1149.145650194949 36.68066628216274 0.3445925351074315
1.252765348465646 13.080497145798759 1020.2488588318644 38.35374714379072 0.3499340534961089
1.2798063829367354 13.08293532570836 906.7477618666165 40.103530898542026 0.35540094326512106
1.3068502226895016 13.084517936775084 806.7951412223554 41.93550140508574 0.361007838452531
1.3338872454161017 13.085232055548769 718.6396503188628 43.85312502140935 0.3667565724131404
1.3608948720914342 13.085032335885966 640.6684748454575 45.86111077337282 0.3726550147310579
1.3878260079537272 13.083777765957763 571.830312289627 47.96478098893204 0.3787130640240697
1.4146827013502024 13.08148394694114 510.8653046145927 50.1688783260715 0.3849363022894017
1.4414054279276185 13.078034942892849 456.90017632526263 52.47864814588841 0.39133183538177907
1.4680005009186787 13.073437415229332 409.04251773670296 54.90049284752392 0.3979112854239868
1.4944085062410362 13.067572799501134 366.5524037393976 57.44060124723231 0.40468371167563066
1.520620345212091 13.06042933781272 328.8536783894832 60.10560017621403 0.41165888333887224
1.5466037647099709 13.05194396197662 295.3087180740211 62.902593910448466 0.41884733801082985
1.5723193494823062 13.042065885550155 265.4793690051787 65.83920737554138 0.42626044490786863
1.5977437301727304 13.03073914015511 238.93654855057693 68.92363350979697 0.43391047342031913
1.6228315684254542 13.017919441577302 215.2525549390178 72.16468521636105 0.4418106676245663
1.6475822412994112 13.003583223854873 194.1088097949559 75.57185238930064 0.44997532745523583
1.6719318300854775 12.987650241840775 175.24485881196662 79.15507969023015 0.45841870771487336
1.695868975651568 12.9701054607795 158.37721874591267 82.92454032949976 0.46715400635964116
1.7193492651519162 12.950894297938138 143.28674129292693 86.89297790399837 0.4762028050680918
1.7423350733643717 12.929956336682476 129.785340126162 91.0719852369338 0.48557951029546476
1.7648147835041526 12.907310974413235 117.684930584047 95.47561613142433 0.49530590529098456
1.7867420506276754 12.8828764625407 106.82640103879197 100.11757255227224 0.5053996507190855
1.8080800842002753 12.856626443150862 97.08893535758848 105.01435974360984 0.515886373912332
1.8287914296230876 12.828494405602722 88.33639260546425 110.1825159982638 0.5267886082266884
1.848871267378568 12.798532550394647 80.46937521574061 115.6396542551307 0.5381296678110024
1.8682582382531132 12.766626589453182 73.38441849819964 121.4060113142549 0.5499389958302652
1.8869276977075584 12.732780064547297 67.01174155257567 127.50299081737461 0.5622463280388136
1.9048516728665381 12.696969188413277 61.25998844023355 133.95304435310433 0.5750810090758854
1.9219952738506831 12.6591551183884 56.078785418736494 140.7818123789153 0.5884791941342178
1.9383098569039539 12.619284057103128 51.3956759874184 148.0169922145053 0.6024792305882478
1.9538128758378452 12.577428887300552 47.14938962287217 155.68711154171518 0.6171169923802485
1.9684248111796507 12.533508885294951 43.34130251155714 163.82577739507838 0.6324399538340495
1.98214168106946 12.487512521827696 39.88250407740209 172.46672928772168 0.6484895764053453
1.9949302380989145 12.439443245857335 36.745830314178804 181.64930618084426 0.6653192088853781
2.0067696818709235 12.38928622140644 33.905966411417666 191.41547529995026 0.682983165641698
2.0176190673956214 12.33701788891294 31.329971628809318 201.8112613942516 0.7015406678132611
2.027456898404709 12.282636793111818 28.993337230766393 212.88663183031704 0.7210544703047765
2.036269260442333 12.226177003874179 26.871130075005894 224.69700394901523 0.7415946990271797
2.044016970821932 12.16758727782325 24.944207366479553 237.30358664720745 0.7632386607663436
2.0506771645505273 12.10688843016492 23.189009226172907 250.77320270174988 0.7860688381072346
2.0562530497878417 12.044147450392808 21.595576048791862 265.17892780317834 0.8101733436066215
2.060701026645681 11.979304596594323 20.14301444386763 280.6025290886763 0.8356519917372668
2.064009126808348 11.91241549294074 18.822703516324058 297.1336645272086 0.8626115562350091
2.06617213211312 11.843520075642568 17.62006711735361 314.872723786073 0.891172606860299
2.0671687054351797 11.772635171065133 16.52448998620032 333.9291062935895 0.9214610324601546
