M[M_sun], R[km], Lambda[1], P_c[MeV/fm^3], rho_c[fm^-3]
0.24162668629717493 15.618656898711224 2160425.4255784233 3.5677272577965504 0.1711233750220791
0.25363800483452575 15.277473793651733 1723249.540388397 3.784723705433382 0.1738869776987886
0.26602830767946134 14.981519425985434 1383157.3256520869 4.0111998875493535 0.1766642249421581
0.27879806925642303 14.72384065313207 1116742.2490367754 4.247414877071102 0.1794538799753137
0.29194605662194073 14.498774460832252 906216.298867623 4.493992402066405 0.18226248255277996
0.30547462938994047 14.301624344516213 738984.2351900407 4.751081011505005 0.18508560078716974
0.3193840289325373 14.128583599960766 605359.7089802722 5.019374454264324 0.18793010556990786
0.3336750358031608 13.976384668060986 498000.0445222959 5.299081023276434 0.19079231197818347
0.34834818334736994 13.842476978998214 411275.16295682034 5.590947357650033 0.19367888215230114
0.363403114930467 13.724423876781588 340905.882542181 5.895117901879848 0.19658445786596104
0.37884838127996057 13.620422841288365 283526.84625925135 6.212465963881331 0.19951691480857212
0.39467095279271003 13.52888227347946 236618.64559863624 6.543266102299479 0.20247273729119228
0.4108866718116892 13.448278185462392 198057.13987202352 6.888186224196332 0.20545505491828908
0.427485898665922 13.377457374648735 166256.2579184001 7.247946128621597 0.2084672155489687
0.44447110590053446 13.315282742058741 139945.83624876078 7.622829286328656 0.21150515980956736
0.4618428983366825 13.260897824145209 118109.21811009271 8.013735444211816 0.2145742912644414
0.4795973255406559 13.21346852955556 99931.85525428719 8.421391189426627 0.21767661829439244
0.4977434873764334 13.172265216667913 83872.50434449597 8.8462705133932 0.2208100915992904
0.5162692926974163 13.1366699999857 72032.7008625335 9.289180094039871 0.22397718208697628
0.5351752365703181 13.106092857906093 61360.448385772084 9.751034434482667 0.22718125807432785
0.5544712501681192 13.080044743231527 52376.30890272949 10.232641638997483 0.23042366811758422
0.574139677252189 13.058018956676587 44794.428284884394 10.734519672678797 0.2337017109101287
0.5941891911616518 13.03969638801196 38384.947882433524 11.257819020288379 0.23702039774215347
0.6146107417284281 13.024637801551862 32951.531949763616 11.803519802999322 0.24038191050400434
0.6353989834569277 13.012543872639185 28338.755174064354 12.37259911367314 0.24378787871422122
0.6565541502304066 13.003097183625192 24411.884150486738 12.96580979073889 0.2472369815244107
0.6780766520519754 12.996054234971075 21064.259868332996 13.584349833812782 0.25073257260777837
0.699951278309684 12.991104593261884 18067.69670269114 14.229475478750327 0.2542779804102715
0.7221703542760268 12.988022434681369 15757.04928657046 14.902373917469943 0.2578751847826045
0.7447445680924614 12.98665570277165 13658.678163124525 15.604158045607855 0.26152492858797427
0.7676506141633466 12.986743535918125 11857.772279266015 16.335925653520963 0.26522743708347385
0.790880117666973 12.988114260740295 10308.67348301133 17.099369562267672 0.2689882083457206
0.8144404716269542 12.990613183913588 8915.5278993643 17.895941527831784 0.2728096684737399
0.8383071957615617 12.994070565232349 7772.76908588408 18.727111536428428 0.27669385077816483
0.862472416913168 12.998334034589469 6828.393775474472 19.59401142820649 0.2806393509740074
0.8869334123071402 13.003274756309528 5967.888088129529 20.498823920200422 0.28465344082462024
0.9116775325043964 13.008760192283514 5222.266155543986 21.44333875690976 0.28873912497138016
0.9366835466507161 13.014642672531448 4575.435813833982 22.429173094945384 0.2928974115684629
0.9619455223597353 13.020828120842925 4013.5262336448186 23.458080978638645 0.2971299422449171
0.987456063517757 13.02722235563767 3524.450459104209 24.532608247887776 0.30144385957270636
1.0131836940010905 13.033682920041107 3098.865346544292 25.654854073923886 0.30584197968015975
1.039131244090254 13.040132470818955 2727.758405955238 26.826458468577133 0.3103232043254797
1.0652710655375917 13.046463299597882 2403.770079467359 28.05066401974919 0.31489740604776967
1.0915844683453044 13.0525851018349 2120.7644940127616 29.329709201951726 0.31956631465734325
1.118068050033897 13.058424539667639 1872.9149656112857 30.665972307799954 0.3243320523991235
1.1446858913496616 13.063894057885333 1655.9742455324174 32.06312968765954 0.32920459540292873
1.1714334807537596 13.068910569967557 1465.722544426056 33.523019268715146 0.3341809816922428
1.1982797788237276 13.073388359240234 1298.7283533148377 35.05005609066831 0.33927403187436544
1.22520767907551 13.077256031582875 1151.9618622889045 36.646606623465814 0.34448266392079707
1.2521901685240453 13.080435917604602 1022.804845708039 38.31723908254106 0.34981841471209013
1.2792192018781656 13.082894228153817 909.0634570769517 40.06466160918942 0.3552806946692547
1.3062516439542293 13.084498885081148 808.865447053753 41.89411427983737 0.3608827189027832
1.3332767288119733 13.08523134987136 720.4860143034056 43.808756277883916 0.36662468556155836
1.3602743419637997 13.085045134908835 642.4046815634782 45.81385333926804 0.37251759653211836
1.3871940098445887 13.083811943258521 573.3153716187586 47.91443311611939 0.3785697577253979
1.4140346371809587 13.081535786459671 512.2326035698641 50.11488823030892 0.3847850160912434
1.440763942007483 13.078147892837938 458.1383951802273 52.421101495408024 0.39117383384042664
1.4673396374919287 13.073554666400364 410.18526111726703 54.839134967217255 0.39774612104517537
1.4937462335854041 13.067736429362137 367.5757676992184 57.37515683961448 0.4045109023828214
1.519951684625502 13.060633344067684 329.7600867682372 60.035771475708366 0.4114779096344913
1.5459298661844671 13.052182804736981 296.13715021116536 62.82805865356927 0.41865763985625665
1.5716420513042648 13.042342590766609 266.23133193125653 65.75961656648091 0.42606141829200955
1.5970574451205264 13.03105383953348 239.59802931548097 68.83860895842773 0.4337014665830544
1.6221516809743455 13.018283221233965 215.85753602576287 72.07381682284273 0.4415909768973456
1.6469005368563716 13.004000909216495 194.66553467997758 75.4746951462795 0.44974419267655147
1.671254565494635 12.98812362196309 175.74795449218314 79.05143523945237 0.458176496782793
1.6951776804188226 12.970618264913275 158.8313729198688 82.81384446978896 0.4668996275964244
1.7186733552733435 12.951479680809141 143.70623325352838 86.77443904992396 0.4759343728858391
1.741672877595632 12.930622992009805 130.1737769117097 90.94555403410523 0.48529824740682403
1.764154127473726 12.90802938738264 118.03400985587227 95.34007542096768 0.4950084987074727
1.786084346718989 12.883653281381813 107.15007444785284 99.9728043396245 0.5050872471967828
1.8074317875369 12.857462501021246 97.37601810804394 104.85961379007993 0.515557770555651
1.8281629061548144 12.829422978446061 88.59689880994124 110.01640689555515 0.5264403927019802
1.848245856448065 12.799510524743393 80.705938286755 115.46174713724331 0.5377621730964737
1.867646545960308 12.7676809714206 73.6080188832719 121.21541553866818 0.5495510126767303
1.8863323271901216 12.733917572126842 67.20823277771986 127.29863701415584 0.561836191586321
1.904272089580308 12.698181054960223 61.440295636669276 133.73451296603113 0.5746495602644095
1.9214242051887542 12.660422318529358 56.24521930254727 140.54709885549153 0.5880218829335464
1.9377703604311636 12.620652518130305 51.5479100912139 147.7646919694244 0.6019939185141148
1.9532899430290125 12.578908886150924 47.30451821133435 155.416512190021 0.6166041795214111
1.9679376451498218 12.53508881201482 43.471129583254154 163.53453027237853 0.6318948242292268
1.9816774189740767 12.489174876675023 39.996757717571306 172.15358129083864 0.6479113828679944
1.9945055703793357 12.441228263213247 36.852797054420265 181.3124128395709 0.664705552992958
2.0063553277710016 12.39111906055086 34.00501680436797 191.05265048375924 0.6823309111182022
2.0172474093850816 12.338981411560642 31.422801035438805 201.4200936486516 0.7008463836503375
2.0271079241282566 12.284674997973164 29.075802770363055 212.46517882467205 0.7203167588134509
2.03594597311408 12.228288280191155 26.94694930062971 224.24190014122854 0.7408080412609352
2.0437431756092246 12.169841350117567 25.01296903845848 236.81229987659685 0.7624008914314567
2.0504486619328253 12.109267796231016 23.25297054492801 250.2412825120598 0.7851722319037732
2.0560525102749128 12.046589387060171 21.654108170295643 264.6033117082509 0.8092154849820721
2.060548340116892 11.98187573781371 20.198161384023653 279.9791941624546 0.8346282298903378
2.0639042134643844 11.915111247627694 18.87173978969906 296.45831366828264 0.8615173668334292
2.0661080018206435 11.846309858439623 17.665674058866387 314.1391098532613 0.8899982352446228
2.0671504447171607 11.775537601511752 16.56721341359117 333.1323945157942 0.9202026898480148
