M[M_sun], R[km], Lambda[1], P_c[MeV/fm^3], rho_c[fm^-3]
0.24162668629717493 15.618656898711224 2160425.4255784233 3.5677272577965504 0.1711233750220791
0.2536346674290133 15.27749285911323 1723271.018372126 3.7846504256062468 0.17388606430109474
0.266020767584604 14.981676164604838 1383555.5078941218 4.011045846210956 0.17666236344349254
0.2787849742621108 14.724084649330132 1117038.4554694684 4.247174870465602 0.17945109626037214
0.2919284255237974 14.499079416713636 906514.3620394932 4.493660140204972 0.18225878273983895
0.30545298351561384 14.30190089914317 739266.0999460504 4.75064522179807 0.18508089342661768
0.31935540531147233 14.128908617637812 605579.2690409264 5.0188319349653 0.18792447672278728
0.33364139067464316 13.976748002520294 498201.6887626889 5.298417502255858 0.19078563142248675
0.3483093230229247 13.842789357736669 411474.7354329106 5.590161186885639 0.19367127573388748
0.3633577338910515 13.72474912580352 341102.70320734865 5.894191431967961 0.19657575626448665
0.37879629342877763 13.620750123872167 283701.8438994291 6.2113879958271045 0.19950708503787562
0.39461311936599464 13.529172594063906 236772.72169920758 6.542037763890323 0.20246196642274789
0.4108221879325759 13.448590967566128 198192.39186122696 6.8867838196676185 0.20544311145282634
0.4274133754172504 13.377743108827932 166381.16743810909 7.246356513218232 0.20845406506812017
0.44439134024482235 13.315554962176273 140058.8337424867 7.621056861480284 0.21149105016810887
0.46175435948440074 13.26116043018376 118213.4980329827 8.011749317442163 0.21455892696816362
0.4795016365090141 13.213706016318813 100013.6039005937 8.419175891568461 0.21765996235142865
0.4976389610971269 13.172497248724174 84826.59634815413 8.843834219072509 0.22079245178746013
0.5161566713792884 13.136849971529356 72107.4472054561 9.286483406583336 0.2239581972391634
0.5350563186032219 13.106253931988714 61421.87389699521 9.748059091724974 0.227160887302868
0.554343238419885 13.080197561774066 52428.457763145736 10.229368270068253 0.2304018687574609
0.5740010820402004 13.058177017346663 44843.44195071561 10.730962503585657 0.23367887278267765
0.5940427450699806 13.039826311446495 38429.454856080134 11.253924599847794 0.2369960653327661
0.6144546010499168 13.02473655169312 32988.79943784547 11.799265153281471 0.2403560351349935
0.6352317879983932 13.012625632644513 28370.87679233253 12.367959824423922 0.24376040913832756
0.656376871849596 13.00317312103269 24443.55777094371 12.960807164422816 0.2472083885638115
0.6778906916316516 12.99610910602055 21091.953447265245 13.578912893952058 0.2507023011832772
0.6997545729026406 12.99114788535502 18228.241556742894 14.223575110214192 0.25424597062299537
0.7219625527022371 12.988044424038696 15777.607660320338 14.895979135961541 0.2578413731622385
0.7445264601116818 12.986661615975414 13677.34769497617 15.597298219790629 0.2614898657086989
0.7674203768961206 12.986734230807388 11874.620300262066 16.328507974232117 0.26519046181263717
0.7906408557104159 12.988087853983979 10323.562419876476 17.091356849883898 0.26894924523873043
0.8141872682214211 12.990600930567231 8987.541973286983 17.88729413976973 0.27276863723570327
0.8380457327600367 12.994033532658833 7835.325747703001 18.717846852136965 0.2766511948342505
0.8619754847496409 12.998082047128596 6846.467747548182 19.585379707533978 0.29988650783989385
0.8852865518676493 13.001488885494084 6015.564603074786 20.507535023074606 0.32821184366660094
0.9081033684139889 13.003619532861652 5308.163837299403 21.48047288025588 0.3560498978664989
0.9305324235802377 13.004317745888116 4698.292191409438 22.50673283277028 0.3832888574643041
0.952636190697291 13.003365025008815 4168.740801486749 23.589156437259078 0.41010416918109655
0.9745002213615607 13.000838545545356 3706.7740664396097 24.730432604713293 0.4365863159826715
0.9961656465980725 12.996650812963379 3301.474883842789 25.93242109852609 0.4627352489180258
1.0177126328830393 12.990940152272032 2944.1683641873906 27.19635516021344 0.48852269866995685
1.0391469828269688 12.983618903937055 2628.432679280135 28.52617855533472 0.5141220064071867
1.0605240060167058 12.97482707817791 2348.249744168881 29.92459520571029 0.539584414686545
1.0818614640982047 12.964584076672049 2099.4042201008697 31.394587397438666 0.564971451852897
1.1031829380598177 12.952967461873039 1878.195073913095 32.93944950314058 0.5903520370650426
1.1245076063171902 12.940048741839213 1680.8118710180408 34.562817762921476 0.6158004506002809
1.1458303974136572 12.92582236550154 1504.9041753224617 36.26742910510205 0.6413444747443275
1.167153053655052 12.910302823622896 1348.0974316149343 38.05787276523538 0.6670835808406574
1.1884826835886115 12.893588997677613 1207.8991918697507 39.939488556992636 0.6931264480798488
1.2098146523033961 12.875683805830857 1082.8545707657038 41.91593474194577 0.7195108447031779
1.2311234312886616 12.856541972008458 971.0778756882266 43.99217212594072 0.7463130033562811
1.2524101303685105 12.836271925724661 871.1432105437855 46.174202660584726 0.7736307813114276
1.273665691974549 12.814896541207611 781.9332911527064 48.46794186290611 0.8015462385647631
1.2948579427884417 12.792368080773395 702.159111650925 50.87820951619718 0.8301088323798961
1.3159616040466333 12.768729455303028 630.8795700292231 53.413316724829144 0.8594461631432794
1.3369481469194509 12.743775833869652 567.112873666257 56.08017450040101 0.8896407096857158
1.3577978988490453 12.717716688658546 510.1293681966196 58.886456879286754 0.9207853357892717
1.3784699705258598 12.690447027161614 459.22876762881094 61.84064998901118 0.9529821922427156
1.3989406185200948 12.661849987335522 413.6561424786745 64.95210817109104 0.9863421145054406
1.4191666209591407 12.632069396888658 372.93806587457516 68.23111821727824 1.0209843203131925
1.439118252218686 12.600858123187338 336.50257068899555 71.68643019058354 1.056994994262124
1.458760651712218 12.568346400765265 303.87190641182553 75.33228132725138 1.0945425686360992
1.478049144398889 12.534453150858631 274.6967362483777 79.17901293854281 1.1337193226321465
1.4969424538766996 12.499104016252844 248.56381737152617 83.24189967115022 1.1746692953455327
1.5154036093078753 12.462254771115203 225.16339837147774 87.5351439951271 1.2174065932655531
1.533386684893596 12.42394357993703 204.19349096722357 92.07455960694114 1.2623170219476363
1.5508513814002554 12.383906649271127 185.37338265250156 96.87771080380111 1.3096672345007676
1.5677697889836728 12.342334426981958 168.4990692824246 101.96400969333806 1.3596803542862783
1.5840737032203571 12.299078943606096 153.3705870324101 107.35487800711935 1.41260326246198
1.5997474893693695 12.254121451807483 139.77233745170858 113.07136308355034 1.4686842767246366
1.614728574749996 12.20738573873163 127.56570289449051 119.14014971087202 1.5282363731921418
1.628974129245666 12.158801815218933 116.58431907578942 125.58779732399493 1.5915818186231332
1.6424722080420846 12.108453331130443 106.70162777708052 132.44387751982313 1.6590895826124554
1.655149489732607 12.05617466527373 97.81847582148478 139.74124218609626 1.731184999809965
1.6669788930476925 12.002102134718914 89.81785462165811 147.51633996754975 1.8083647799300735
1.67793227340311 11.945874762036707 82.58714172690495 155.808415622278 1.8912158255330238
1.6879570239867194 11.887818214545343 76.08840517171723 164.66148545771117 1.9804699424662138
1.6970375324431537 11.827709650264756 70.2144450199017 174.12317934262828 2.0770812509330576
1.705122697245911 11.765622109913696 64.90950090022142 184.2467927539195 2.182401984220937
1.7121818188733071 11.701546518531044 60.113652853331686 195.09207361901454 2.298536448369775
1.7181881436849795 11.635454378567283 55.78288995060974 206.72590691757253 2.429204265359763
1.7231065011841917 11.567321736661993 51.87400506045454 219.22369072149453 2.582252204712788
1.7268771128958402 11.497298316147493 48.344861214544345 232.67550766045744 2.778436920705304
1.7294476876063436 11.425386070269706 45.166344569647976 247.1819070517675 2.9506056358353567
1.7309048016122281 11.350993092563007 42.26350058542047 262.78683647038974 3.0608829785386886
1.7313247947744421 11.274533393079182 39.61832193285272 279.5819256015126 3.1779420007718016
