M[M_sun], R[km], Lambda[1], P_c[MeV/fm^3], rho_c[fm^-3]
0.24162668629717493 15.618656898711224 2160425.4255784233 3.5677272577965504 0.1711233750220791
0.253643981446234 15.277276747373344 1723186.3609955579 3.784819345604925 0.17388816980738855
0.26603990497160834 14.981273440843793 1382963.153528974 4.011400938876638 0.17666665452879596
0.278814837061371 14.723505067643602 1116472.0772437444 4.247728137932605 0.17945751332923307
0.2919689349210032 14.498429882003007 905884.0965662455 4.494426089043693 0.18226731175792557
0.30550430570765225 14.301248853129609 738661.1641964776 4.7516498460741055 0.18509174528615313
0.31942071648455506 14.128155132168565 605113.180893859 5.020082622781264 0.18793745309159907
0.33371938730280987 13.975933103544525 497687.7902743448 5.299947164890433 0.19080103258704761
0.34839977173680925 13.84203699076997 411011.7271987495 5.591973630969725 0.1936888116289872
0.36346189245994687 13.72401077909081 340659.2958560268 5.896327357596339 0.19659581732999842
0.37891569729759816 13.620042078351801 283310.38875600585 6.213873232335606 0.19952974740241358
0.39474792573296585 13.528473639767235 236417.84297152216 6.544869718474028 0.20248679883866375
0.4109721960556947 13.447899349002407 197876.29202999256 6.890017137867636 0.20547064774742702
0.4275798195303739 13.37707431979821 166085.09033012437 7.250021513831984 0.20848438467893857
0.4445751249795773 13.314934145215734 139808.4867087992 7.625143403327993 0.21152358166885443
0.4619562998322651 13.260577097880923 117981.08512786962 8.016328646173625 0.21459435177812974
0.4797236255554757 13.213141614995225 99809.64249178508 8.424283689265213 0.217698365849538
0.4978772656426113 13.172005870320916 84647.23086986762 8.849451643060227 0.2208331243372718
0.516415139360844 13.136409741515427 71939.6481224595 9.292701320170142 0.22400197173845623
0.5353339858714269 13.105847903618313 61277.56552521177 9.754919621685012 0.2272078581224645
0.5546384733872901 13.07984301816502 52300.125255284365 10.23691610154003 0.23045213437064435
0.5743228381779629 13.05784321782398 44731.777110982206 10.739164836560985 0.23373153430114402
0.5943796135475985 13.039520171161332 38330.479435142755 11.262904721895522 0.23705217329782727
0.6148154085021392 13.024507988860723 32903.28596308874 11.80907607304453 0.2404157018963111
0.6356211864481549 13.012424208807394 28293.3820249244 12.378657855848187 0.24382375297621633
0.6567896274151789 13.003016184640854 24371.220841778126 12.972343183212171 0.24727432371664432
0.6783202537648826 12.99598588567839 21028.88208474336 13.591450623472005 0.2507721079021855
0.7002085621418335 12.991065654515486 18173.670997662633 14.23718172178795 0.25431978715485387
0.7224421827903204 12.987999812172188 15729.910303017949 14.910726114548302 0.25791934599694233
0.7450292376269834 12.986650796320305 13634.3813181193 15.61311783070333 0.26157072506612206
0.7679503872467159 12.986759974932944 11837.1895710402 16.345614320277114 0.26527573265725174
0.7911940746787156 12.988141335062158 10289.467542849769 17.10983571376178 0.26903910169630024
0.8147674594854869 12.990672281062068 8956.930172173692 17.90723698853574 0.27286326462711596
0.8386504140776746 12.994131205541763 7807.793925328066 18.739186215303544 0.27674932767998933
0.8628311462885491 12.998405434220437 6815.107869047976 19.60702226867098 0.2806977224096639
0.8873101500975856 13.003352577373368 5955.757995317139 20.512833513523326 0.28471483303478295
0.9120657579150185 13.00884181642103 5211.4217222565085 21.458413979215475 0.288803672707705
0.9370861588846598 13.014734741697055 4565.524893192718 22.44525116295015 0.2929641907094909
0.9623634850870606 13.020936141527384 4004.566076205815 23.4753635818289 0.2972001320316345
0.9878885121781806 13.027328029407494 3516.775921702141 24.551176694079018 0.3015176231945689
1.0136307507516469 13.033785444105508 3092.0793231018774 25.674636506654238 0.30591832389794765
1.0395947486151755 13.040243519797494 2721.627542638575 26.847696631927736 0.3104034382822719
1.065744614342616 13.046565387796958 2398.4882152199702 28.073457278772615 0.314981728224166
1.0920751086704934 13.052697567942968 2115.86881347543 29.3539767981993 0.31965366310345444
1.1185733865171545 13.058537552163294 1868.7215774644071 30.692003844589095 0.3244238803319487
1.1452042580449644 13.063987535509238 1652.1996859548196 32.09094566625907 0.3293004881926551
1.1719669088641351 13.069004053570072 1462.1630868712978 33.55273371307404 0.3342811224334197
1.1988219711150712 13.07345980908927 1295.5306113841677 35.081914606271184 0.339379379348601
1.2257684201440908 13.077324893579512 1149.160271177402 36.68051679335219 0.34459205287966904
1.2527627463407964 13.080497013686529 1020.2403807334127 38.353588001919334 0.3499335523736123
1.2798039956671705 13.082937723962232 906.7899663248231 40.103360294791536 0.3554004154741121
1.3068481030516745 13.08452125769194 806.8007445633478 41.9353197475352 0.3610072892742347
1.3338852877807175 13.08523739154634 718.6468994305536 43.85293027337403 0.36675599352126315
1.3608915321095025 13.085034071488181 640.6685497091473 45.86090334291533 0.3726544115514648
1.3878232370223247 13.083777201202928 571.8512485067563 47.9645599900557 0.37871243498992757
1.4146802116935424 13.081486529925114 510.8598460620702 50.16864133545198 0.38493563821556886
1.4414026637281312 13.078037125223995 456.92101104584714 52.47839553974203 0.3913311418199445
1.4679973295361208 13.073440758889154 409.043281834604 54.90022350733876 0.3979105604086481
1.4944062602528676 13.067573702493243 366.5631425523284 57.44031396389543 0.4046829530893421
1.5206177764259436 13.060431542477746 328.86403077093547 60.105293641899806 0.41165808889976674
1.5466008168590477 13.051944278122065 295.31201570062916 62.902266709697415 0.4188465052589048
1.572316736129426 13.042065828082576 265.4796713193177 65.8388579754395 0.426259571189902
1.5977407599124296 13.030740656245985 238.93972225637398 68.92326024915423 0.4339095558732676
1.6228287893617712 13.017922345829689 215.2562067610936 72.16428629377597 0.44180970315728096
1.647579131894131 13.003584457914432 194.10919794388005 75.57142584998341 0.4499743127283084
1.6719283423649403 12.987651762511186 175.2390289521395 79.15462563866751 0.45841764841777244
1.6958659057695862 12.970107546871898 158.37492256820434 82.92405433572544 0.4671528895473632
1.7193463516764853 12.95089736111001 143.28922860040169 86.8924574662584 0.47620162653267106
1.7423322547841569 12.929958316324887 129.7887193259763 91.07143013859935 0.48557827540599496
1.7648120417423538 12.907313962468605 117.68807083750897 95.47502102506182 0.4953045994947444
1.7867390264290557 12.882881956031591 106.83029581097152 100.11693691970657 0.505398279051585
1.8080779367587771 12.856630387838155 97.09289893427255 105.01368028878218 0.5158849310885812
1.8287886282056351 12.828498792474504 88.33796293009112 110.18178912597249 0.5267870885300809
1.8488678412461195 12.798536249834761 80.47117212388737 115.63887307095739 0.5381280541540663
1.8682567574445486 12.766630069197866 73.38432408374877 121.40517439689249 0.5499372921732113
1.8869259500458777 12.732784604119148 67.01491262686795 127.50209346807439 0.5622445270659281
1.9048499003860804 12.696974228004661 61.26225866471888 133.95208472884036 0.5750791144796277
1.9219928207488033 12.659161205615703 56.07951681568388 140.7807816709012 0.5884771859230479
1.9383099801840014 12.619288519873518 51.39795225789964 148.015884250425 0.6024770993642147
1.953804956334878 12.577437807279951 47.16495327248576 155.68592319159254 0.6171147403378107
1.9684228311664922 12.533515548904996 43.34264462514003 163.8245014576236 0.6324375703722802
1.9821396052891262 12.487519939390866 39.882892917312425 172.46535401483388 0.6484870371143272
1.9949286820757488 12.439450363361143 36.74697390333172 181.64782658708853 0.6653165137848362
2.0067682276425134 12.389293654861586 33.90511535810009 191.41388177715632 0.68298030094666
2.0176171761114094 12.337026319349311 31.33076958466757 201.80954334349465 0.7015376184426393
2.0274553417709873 12.282645610821412 28.993798567589575 212.88478187947078 0.72105123392645
2.036267699963271 12.226186805743028 26.87220622144233 224.69500497537558 0.7415912437536547
2.0440156816524873 12.167597815067131 24.944640013380937 237.30142891237062 0.763234981630234
2.050675887006897 12.106898406689638 23.18923352287048 250.77087061683653 0.7860649140965944
2.056252215306585 12.044158629183901 21.595736811952694 265.17639927293715 0.8101691359853957
2.060700952907206 11.979315321532953 20.142913245990577 280.59979450220476 0.835647506378984
2.064008570606513 11.912426424784492 18.82247532582936 297.13069770448647 0.8626067494506006
2.0661716537514074 11.843532292198029 17.619161954625092 314.86950090378355 0.8911674476596457
2.067169427591415 11.772647311092186 16.524935135642977 333.92560609545444 0.9214555041767942
