M[M_sun], R[km], Lambda[1], P_c[MeV/fm^3], rho_c[fm^-3]
0.24162668629717493 15.618656898711224 2160425.4255784233 3.5677272577965504 0.1711233750220791
0.2536446168382831 15.277276853953355 1723160.9063308362 3.784832123437789 0.17388832907691096
0.26604053778228703 14.981268677039457 1383017.6172402669 4.011427800522973 0.17666697913593926
0.27881698819808204 14.723478894073295 1093955.589211134 4.247769992257876 0.1794579987763331
0.2919720160988793 14.49837764974498 905800.4592177841 4.49448403443454 0.18226795699330106
0.30550872555397574 14.301179696598613 738610.1254707024 4.751725850156626 0.18509256627530032
0.31942522607878887 14.12809686865727 605058.96575512 5.020177245521354 0.1879384348390485
0.3337226777993558 13.97596669600768 497668.21330037725 5.300062897573662 0.19080219782313249
0.34840664552709616 13.84198001915736 410977.271633869 5.5921107626549595 0.1936901384157655
0.3634700512180994 13.72393485568254 340630.9988222931 5.896488969286003 0.19659733522118844
0.3789249559938946 13.619950496011333 283287.56111050234 6.214061279901873 0.19953146216979395
0.39475829677849156 13.528401605153018 236385.79179951342 6.545084006777885 0.20248867785759925
0.4109838393032244 13.447825584522741 197841.19275619276 6.890261803920446 0.20547273142620287
0.4275931085488565 13.37703538281544 166064.50584733527 7.2502988537146384 0.20848667904071164
0.4445886434927336 13.314892521856155 139789.53851879068 7.625452650596467 0.21152604347595683
0.4619716408465086 13.260530382515444 117967.0339688185 8.016675195081973 0.21459703261410856
0.479736893224338 13.213123423050757 99802.84112571196 8.424670242343563 0.21770127218829588
0.497895485197024 13.171960135651503 84633.5119114408 8.849876775105463 0.22083620247492428
0.5164351882800354 13.136371816800654 71929.41875477253 9.293171911459705 0.2240052847304727
0.5353550727521981 13.105817187751219 61266.406931256344 9.75543886318088 0.22721141312459575
0.5546615991814078 13.079812047387554 52298.340343945645 10.237487378110682 0.2304559388497492
0.5743468705866794 13.057818790772407 44723.41748150754 10.739785666050297 0.2337355202187743
0.5944054712209875 13.03951661602746 38321.8563386123 11.263584441129844 0.23705642019590373
0.6148432338944199 13.024484927972894 32896.37263480838 11.809818697774928 0.2404202182937139
0.6356491317301776 13.012422427737521 28056.11976861162 12.379467652370785 0.24382854784151595
0.6568206603182968 13.003013061312858 24366.769111954953 12.973216432793768 0.24727931485315988
0.6783538639268617 12.99596769884829 20862.54416156435 13.592399727083382 0.2507773922568136
0.700242926020722 12.991062467345769 18168.648131415284 14.238211768749034 0.25432537520988924
0.7224789135579666 12.988005187564685 15726.454060622938 14.911842521193304 0.25792524885970713
0.7450680001779957 12.986639207682778 13631.523351895632 15.614315468127966 0.2615768465942125
0.7679904254884686 12.986760778510671 11834.299574947361 16.346909407865233 0.2652821883440593
0.7912369246851259 12.988139059316403 10286.920542509106 17.11123475178763 0.26904590474446594
0.8148111192989851 12.99067860632677 8954.401580361562 17.908746908254574 0.2728704290882174
0.8386953992326324 12.994142730484185 7805.877652457394 18.74080031943791 0.27675674365332686
0.8628791549910275 12.998410463578645 6770.563619529833 19.60876154567835 0.2807055254486914
0.887361795445596 13.003370828685327 5954.112334586536 20.514706335150738 0.28472304002953985
0.9121178224041491 13.00886468065278 5210.000226313716 21.46042929051463 0.28881230168708005
0.9371391368570385 13.014745291083306 4564.157643886724 22.44740056857629 0.29297311811677595
0.9624246678323238 13.0209644424542 4003.5745107060106 23.477674056879778 0.2972095155573251
0.987946526548253 13.027344255732288 3515.714296346504 24.553659114590086 0.301527484672799
1.0136906583261744 13.033800729420452 3091.3992140412092 25.677281263125593 0.30592853052252195
1.0396553901770496 13.040254957819403 2720.806243200807 26.850536059004867 0.31041416512647496
1.0658079835276997 13.046585300131353 2397.568671759105 28.076504668743382 0.3149930018447746
1.092141471306176 13.05271576320024 2115.1491481770904 29.35722135009352 0.31966534149810866
1.1186411846429136 13.058549016272362 1867.942431292496 30.69548429747667 0.3244361578550373
1.1452738666126716 13.06400145371388 1651.6906419060738 32.09465066012976 0.3293132181866676
1.1720380583543353 13.069017585196939 1461.6991589429745 33.55670670980543 0.33429451184203757
1.1988949407199136 13.073474290883272 1295.0243131235225 35.08617435895695 0.3393934651959113
1.2258428977929112 13.077341234325276 1148.7634671321507 36.685050939890886 0.3446066793345321
1.2528386223563381 13.080505038750758 1019.8528420230723 38.35841494420093 0.3499487519521147
1.2798827911495094 13.082940567437197 906.4776854734238 40.1085348996894 0.35541642397294226
1.3069275972791257 13.08452334286551 806.565665277273 41.94082963689961 0.3610239465045279
1.3339664627629193 13.08523479706324 718.3974316929435 43.85883722634574 0.36677355204034623
1.3609752507065305 13.085031191849028 640.45144380891 45.867194981756235 0.37267270678255965
1.3879073423143968 13.083771640849031 571.6345103981371 47.97126318997628 0.3787315144607416
1.4147576833480915 13.08145988663023 510.67608569379604 50.17582960431438 0.3849557805370849
1.4414887670743624 13.078024863048734 456.74353921641637 52.486057465675046 0.39135217859788096
1.4680842618648642 13.073422298002823 408.90044982154944 54.90839301882598 0.3979325512643171
1.4944943702225908 13.067551595017123 366.43437992086467 57.449027737786864 0.40470596225328276
1.520707234329994 13.060402938058957 328.74496191861675 60.11459134949201 0.41168218559028263
1.5466904595783022 13.051914657022225 295.2031347817832 62.91219128736898 0.4188717640981179
1.572406599048339 13.042029689835886 265.38934674355176 65.84945592257769 0.4262860726613516
1.5978206836528173 13.030690990397442 238.84306193662215 68.93458195643733 0.43393738682554633
1.6229184419437597 13.017868800044166 215.16801105187645 72.17638640525904 0.4418389573587501
1.6476706849570752 13.003528077257556 194.03738540357287 75.58436366285629 0.4500050914785286
1.6720191301248375 12.9875928508441 175.17915605669933 79.168397982791 0.4584497791390467
1.6959570813357479 12.970034649701752 158.322941513942 82.9387955920621 0.46718676491149136
1.7194366346769434 12.950818712001507 143.2362785840192 86.90824352458989 0.4762373741879034
1.7424128326545683 12.929842664059851 129.74789623151466 91.08826756954019 0.4856157324922028
1.7649004370056363 12.907221843615671 117.64549975349422 95.4930720424164 0.4953442074574167
1.786826647705531 12.882780803808453 106.79314766710422 100.13621724140488 0.5054398851493568
1.8081648065216902 12.856516601663737 97.05590616448121 105.0342899003269 0.5159286956418959
1.8288734441560146 12.828376616372868 88.30379805104909 110.20383708777497 0.526833184953281
1.8469698842824487 12.799336955096006 81.05508537817157 115.89445468398539 0.8754385050461371
1.8526680588723663 12.766631615318204 77.4790812665932 123.27948502179446 1.461657073767075
