M[M_sun], R[km], Lambda[1], P_c[MeV/fm^3], rho_c[fm^-3]
0.24162668629717493 15.618656898711224 2160425.4255784233 3.5677272577965504 0.1711233750220791
0.25364405754891406 15.277292952961064 1723272.7636943776 3.784820870487901 0.17388818881431922
0.2660400558237205 14.98127368518229 1382970.3050766876 4.011404144489147 0.1766666932667313
0.27881512210811915 14.723516449865146 1116475.960006884 4.247733132729784 0.17945757126135337
0.2919696686945791 14.498408804905957 905859.2995138521 4.494433004097233 0.18226738875865162
0.3055047347314383 14.301231461904814 738625.2483729029 4.7516589161870755 0.18509184326068376
0.31942182908941363 14.128131408348874 605097.3271702895 5.020093914770854 0.18793757025034938
0.33372082921406193 13.97592821180587 497669.68780911184 5.2999609760492215 0.19080117164249977
0.34840059198733175 13.842030042110121 411007.54481981567 5.591989995785276 0.1936889699630795
0.3634634310335945 13.723986697700202 340642.582673893 5.896346643732976 0.19659599846947512
0.37891659306629 13.62000824892203 283336.5506703681 6.213895673188498 0.1995299520359714
0.3947488467039145 13.528452504334401 236412.53942107648 6.544895290748304 0.20248702307296268
0.4109741911863224 13.447863802443909 197869.7278114679 6.890046335241551 0.20547089640451546
0.42758174294529455 13.377080631690191 166082.12348610695 7.250054610296069 0.20848465847750405
0.44457684234174355 13.314948394676593 139805.6521122039 7.625180307411224 0.21152387544908618
0.4619580194518743 13.260580324526558 117982.97863235128 8.01637000157987 0.21459467169563146
0.4797230897115481 13.213152428668957 99812.03958855342 8.4243298184844 0.21769871267677882
0.49788031282625556 13.171990241429198 84644.70037592611 8.849502376010232 0.22083349166550637
0.5164179519725914 13.136411039642923 71939.1547782731 9.292757477878917 0.22400236709222704
0.5353364358086355 13.105847218094501 61276.96782399043 9.754981584924133 0.2272082823555986
0.5546436097243275 13.079819227180439 52299.79092496246 10.23698427421875 0.23045258837409038
0.5743256875488647 13.057839930652344 44730.07964951101 10.739238922470944 0.2337320099556349
0.5943817898849263 13.0395241886829 38328.5267887184 11.262985835196275 0.23705268009519823
0.614819252764216 13.024522344851823 32902.6624318774 11.809164692924334 0.2404162408530393
0.6356225223606495 13.012437068552215 28292.140312031668 12.378754491391103 0.24382432516243657
0.6567934517167906 13.003019914702794 24371.052210933565 12.972447390651872 0.24727491932363738
0.6783255664874888 12.995971160942029 21028.24804859694 13.591563882597354 0.2507727384986515
0.7002122703565027 12.991069937940317 18172.554260715067 14.23730463988837 0.2543204539915477
0.7224474959161381 12.98798949348818 15729.870966083254 14.910859337933225 0.25792005039919735
0.7450350329783818 12.986641855531605 13634.890368244442 15.61326074733699 0.26157145556115297
0.7679544959262878 12.986759101728277 11836.4448977079 16.345768865575305 0.26527650302680195
0.7911989682648678 12.988137828591483 10289.077975585078 17.110002663371493 0.2690399135157184
0.8147737876570719 12.990668858982673 8956.613714472673 17.90741716952931 0.2728641195730469
0.8386555323748995 12.99412246562698 7807.604674904577 18.739378828501568 0.2767502126379735
0.8628367535719629 12.998402108331065 6814.837061176775 19.60722981854544 0.28069865355505574
0.8873164787370995 13.003351760091522 5955.491315780033 20.513056999027178 0.2847158123829128
0.9120705741355825 13.008847044806775 5211.113513103146 21.4586544677083 0.28880470240978895
0.9370928156889184 13.014734953494525 4565.415172970267 22.44550765263747 0.292965256021629
0.9623704298639161 13.020940416512891 4004.414872829914 23.47563929151288 0.2972012517705825
0.987894800419496 13.027330207853863 3497.283779017889 24.55147292152397 0.3015187999655819
1.0136376113120873 13.033786671534287 3091.834494670352 25.674952105194684 0.30591954185349607
1.0396015120071422 13.040244747653459 2721.508197389917 26.848035459863635 0.3104047183132011
1.0657524228915682 13.046574264424214 2398.40069547589 28.073820922172786 0.3149830734992275
1.0920844519255226 13.05269830572856 2115.8608999331977 29.35436396823703 0.3196550566778667
1.1185829000164689 13.05853393054638 1868.6777778972635 30.6924191637291 0.3244253453971271
1.1452120236568493 13.063992020653192 1652.116442189777 32.09138777897553 0.32930200724840253
1.1719755465615853 13.06900220688976 1462.0678936377692 33.553207805343725 0.3342827201732495
1.1988315636538047 13.073461682958085 1295.5254488929615 35.08242291573367 0.33938106019019043
1.2257767658598655 13.077328318573693 1149.0981439287898 36.68105784492196 0.3445937982282801
1.2527717687826 13.08049283445956 1020.1940989588732 38.3541639913382 0.34993536610907416
1.2798138175007487 13.082934210429233 906.7336567337968 40.103977768835065 0.355402325732518
1.3068581297377682 13.084517234273989 806.7594199059995 41.9359772292169 0.3610092769409665
1.3338939830030718 13.08523452809522 718.550161592558 43.85363513420605 0.36675808873218313
1.3609021824756213 13.085032219399064 640.6461432908767 45.86165410596972 0.37265659466844353
1.3878333338332507 13.083775344128572 571.8271293841674 47.96535986208203 0.37871471168391885
1.4146900283096886 13.081484363972459 510.8421483747432 50.169499087360634 0.3849380417309431
1.4414131884976824 13.078033769741145 456.89440734397607 52.479309809867 0.39133365206316023
1.4680074259632003 13.073436100829253 409.02801901632466 54.90119834399142 0.3979131844935965
1.4944161359388033 13.06757171897071 366.53808156495444 57.44135374330703 0.4046856986798568
1.520627933680151 13.060428307427014 328.84337638778896 60.10640309758122 0.4116609642547864
1.5466115119157868 13.051941209346722 295.29634231517144 62.903450964727924 0.4188495192821099
1.572329320004264 13.042061548020456 265.46829059520076 65.84012257801257 0.4262627334843113
1.5977515066916539 13.03073674433248 238.92756163873173 68.92461121174357 0.4339128768013233
1.6228380613027278 13.017915600142322 215.24401603338586 72.16573013633585 0.4418131939070311
1.647591036759515 13.003577064460222 194.10778296274177 75.57296964764164 0.4499779853863519
1.6719397066886996 12.987643198065193 175.2374872607229 79.15626901324 0.45842148239184866
1.6958765390710504 12.970098892658484 158.36640147511926 82.9258133209545 0.4671569316902966
1.719357029379546 12.950888436570207 143.28080751926584 86.89434111695138 0.47620589207471686
1.7423428758357247 12.929947825361994 129.78251618080398 91.07343923881105 0.48558274491444275
1.764822897038829 12.907302668456424 117.6827962316188 95.47717492921976 0.4953093256414104
1.7867490781191964 12.88286746833589 106.82107455486407 100.11923750327806 0.5054032436111242
1.8080892710298384 12.856615652908046 97.08862183058878 105.01613948147603 0.5158901531894213
1.8287986733498427 12.828483021555131 88.33314075619725 110.18441994021615 0.5267925888628474
1.8488789936026384 12.798520907579082 80.46742912259568 115.64170046035025 0.5381338945648948
1.8682559638116112 12.766584486538884 73.39303578871102 121.40820350569054 0.5499434583286796
1.8869369618559035 12.732766020891628 67.01386618893117 127.5053413028885 0.562251045444485
1.904858327929412 12.696954886043258 61.257583813628464 133.95555796028373 0.5750859717169257
1.9220017024682903 12.659140637382746 56.07676138028704 140.78451218145972 0.5884844543762573
1.9383157679635465 12.619257378238268 51.393865974102475 148.01989438015502 0.6024848130482668
1.9538144643516175 12.577414218947823 47.16423315089904 155.69022426909584 0.6171228913102234
1.9684303754381125 12.533488543933974 43.339746198823605 163.8291195472279 0.6324461970020401
1.982147181975331 12.48749355468487 39.88137756745963 172.47033163764098 0.6484962277505986
1.9949376304450175 12.439421143765854 36.746405112745336 181.65318178735956 0.665326268356384
2.0067743962960667 12.389264845344512 33.904554950999525 191.4196493307253 0.6829906693468824
2.017623437645108 12.33699488477445 31.328872408622768 201.8157616121544 0.7015486552561286
2.027460811370192 12.28261373197351 28.992657765092922 212.8914775458904 0.7210629475942621
2.0362730262038236 12.22615261339207 26.87169452585078 224.7022400136298 0.7416037496895189
2.0440188636613486 12.167562732029822 24.94308391162836 237.30923856967982 0.7632482978133535
2.0506798128145878 12.106860590282796 23.18843337552257 250.77931131574258 0.7860791165778713
2.056253321062631 12.044120594765092 21.593692059281153 265.18555098532124 0.8101843649665061
2.060702967376105 11.979277707099687 20.14302299608843 280.6096920137905 0.8356637406016103
2.0640100803149832 11.91238308994554 18.82246163838254 297.14143577170205 0.8626241470435487
2.066173344172501 11.84348769322729 17.619597657834323 314.8811657531694 0.8911861207892132
2.06716889720783 11.772601062153104 16.52443274966826 333.9382746623348 0.9214755131662238
