M[M_sun], R[km], Lambda[1], P_c[MeV/fm^3], rho_c[fm^-3]
0.24162668629717493 15.618656898711224 2160425.4255784233 3.5677272577965504 0.1711233750220791
0.2536437493824921 15.277296641843742 1723223.2388224616 3.7848153412905146 0.17388811989554118
0.26603944057320494 14.981256334116425 1382988.7234493208 4.0113925210063845 0.17666655280380184
0.27881417439674716 14.72354540489883 1116431.3443372068 4.247715021714599 0.17945736120086994
0.29196751500858414 14.498455525671142 905885.9956687852 4.494407930296106 0.18226710955605677
0.30550529060706044 14.301194400694555 738709.2754764686 4.751626028221028 0.18509148800788283
0.3194196910287412 14.12814713574161 605103.0434681363 5.020052970372491 0.18793714543641327
0.3337179351682758 13.975936058727001 497693.37830044713 5.299910897257705 0.19080066743216492
0.3483976180805385 13.842055211062787 411022.7774871176 5.591930657559943 0.193688395849426
0.3634594474742861 13.724019628042248 340664.7098225723 5.89627671295145 0.19659534166477607
0.37891287742085833 13.620021923403321 283315.938347858 6.213814303583666 0.19952921004315072
0.3947446498977084 13.52847700105416 236413.4693045302 6.544802566796332 0.2024862100091678
0.4109687124372925 13.447918563632442 197883.44308971913 6.88994046690664 0.20546999478534944
0.4275764467851411 13.377093385639373 166094.45100414357 7.249934604118713 0.20848366569715374
0.44457082330623604 13.314968423426906 139817.85980165977 7.625046495070181 0.21152281021681044
0.46195169680673065 13.26058682165296 117986.64659360629 8.016220049063808 0.2145935116916883
0.4797156791710204 13.213173906283682 99813.07273490092 8.42416255648318 0.21769745510035762
0.49787141346282093 13.172009909896474 84648.11209277199 8.849318421239799 0.2208321597543706
0.5164132409031289 13.136390404806262 71943.30620887059 9.292553853373871 0.224000933563017
0.5353268010226995 13.105860803317427 61279.932614805206 9.754756910054859 0.2272067441125162
0.5546325646232346 13.07984521115265 52304.89058334834 10.236737084462614 0.23045094218674356
0.5743147995134817 13.05786561247204 44734.82821594081 10.738970291864257 0.23373028526392864
0.5943713325354685 13.039538814258188 38332.13960877606 11.26269172392049 0.2370508424826248
0.6148070286651046 13.024511856197408 32905.01412755815 11.808843363508354 0.24041428663406386
0.6356106745064358 13.012461343939608 28295.264362286118 12.378404097967332 0.2438222504569742
0.6567786835056836 13.003027306246242 24373.30934802427 12.972069542282522 0.2472727596973022
0.6783100809119137 12.995984917161259 21030.142907482634 13.591153213750347 0.2507704520045362
0.7001979341069186 12.991067109444252 18174.853447601618 14.236858948621702 0.25431803609467407
0.7224303794046261 12.98801176952594 15731.353758323472 14.910376280825849 0.25791749629418087
0.745018090914202 12.986654149428368 13635.85184172994 15.612742543570162 0.26156880684723505
0.7679368774667059 12.986762912339087 11837.868392834687 16.345208497593774 0.26527370973295916
0.7911809323895422 12.988129379008845 10289.98436983626 17.10939731880122 0.26903696993006004
0.8147535524632062 12.990669670016429 8957.444153619828 17.906763849539104 0.272861019616408
0.838634964762156 12.99413916835832 7808.5930871348555 18.738680430821667 0.276747003861995
0.8628165389107608 12.998388306536029 6815.569165151287 19.606477262331733 0.2806952773099372
0.8872900295033448 13.003340478976517 5956.142066806601 20.512246662244568 0.28471226136148675
0.9120497180749487 13.008845715325663 5211.91477305189 21.45778248029337 0.28880096881219447
0.9370695231115739 13.014733193577268 4565.9280228630305 22.44457764696176 0.292961393307517
0.9623459035157962 13.020932807056491 4005.0804302652127 23.47463959671909 0.29719719171298664
0.9878704557405746 13.027322617912487 3517.0832779946745 24.550398832151743 0.3015145331184002
1.0136117359339463 13.033779331150802 3092.294693669333 25.673807778883695 0.30591512567787715
1.0395743194478624 13.040237754595854 2721.7709490646575 26.84680690707918 0.3104000770620064
1.0657242506817446 13.046562044751191 2398.6950006667744 28.072502392127486 0.3149781956832491
1.0920575090444629 13.052695258412317 2116.1976602720497 29.35296013401075 0.3196500037366107
1.1185525709917712 13.058530278904469 1868.8902315613946 30.690913265104285 0.32442003324214824
1.1451826547292432 13.063992018295849 1652.384630729239 32.08978473086119 0.32929649933297556
1.1719449169583096 13.06899660460502 1462.279291518755 33.55148880436624 0.33427692696271893
1.1988000893828896 13.073461577076175 1295.637518221752 35.08057984866583 0.3393749656670537
1.225744385268301 13.077324103016782 1149.2392415062172 36.67909606015882 0.344587469814312
1.2527397601928871 13.080486433539663 1020.362605233311 38.352067817996065 0.34992874451079364
1.2797799600224171 13.082932818662055 906.852412653286 40.101738888751115 0.3553953993854998
1.30682280976229 13.084523637765239 806.9044051359223 41.93359328810204 0.3610020699258108
1.333859312192915 13.085237628039247 718.74562364087 43.85107940450838 0.3667504917817956
1.3608669712505876 13.085036444795449 640.7333808252963 45.85893194273362 0.37264867898753085
1.387796313082895 13.083777694260826 571.9021974120392 47.96245963832274 0.3787064567108873
1.4146525600857425 13.081492476915253 510.8769623070078 50.1663890017032 0.3849293269281925
1.4413755026201442 13.078038651733653 456.96797770113255 52.475994799422246 0.39132455028650603
1.4679700055156517 13.073445686056008 409.0881891662341 54.89766373049691 0.3979036699497557
1.4943779725200959 13.067580143529014 366.5950708177118 57.437583659553546 0.4046757435816141
1.5205899108352519 13.06043937581583 328.9025430948328 60.102380380963616 0.41165053865725
1.546572339858153 13.051955856775114 295.3431992029216 62.89915704017579 0.4188385909027426
1.5722884572903022 13.04207866132704 265.5139346927896 65.83553732911538 0.42625126750498965
1.5977122309166607 13.030753468080883 238.96668115006722 68.91971283874558 0.4339008356504843
1.6227992937848132 13.017938011683324 215.2763316279571 72.16049499950968 0.4418005370197251
1.647551480107252 13.00360102835503 194.13732051305826 75.56737209436713 0.44996466893976445
1.6719005126669169 12.987670863933019 175.26831557593084 79.15031041463301 0.4584075810494693
1.6958375556968521 12.970129979710673 158.39615794759703 82.91943554287539 0.4671422755748459
1.7193181777981283 12.950922175991591 143.3049396670762 86.88751132908072 0.47619042596550937
1.7423040598090327 12.92998592988275 129.80179855069986 91.06615459827117 0.4855665392706213
1.7647843387553603 12.907344509391615 117.70273865894893 95.46936526220544 0.49529218948816706
1.7867125140367706 12.882912478060879 106.84988677616938 100.1108960097442 0.5053852430299636
1.8067547006741476 12.856954285376057 97.56869021499072 105.13004920533682 0.6975779765621676
1.8199130298828308 12.826840818246774 91.02285781153063 110.96922289693157 0.9816215746207569
1.8269392792110115 12.789323635445681 86.27519735155226 117.69383940690174 1.2545812816437727
1.8290431736590524 12.743856384161633 82.69128919606527 125.32624325721137 1.5178712254947158
