M[M_sun], R[km], Lambda[1], P_c[MeV/fm^3], rho_c[fm^-3]
0.24162668629717493 15.618656898711224 2160425.4255784233 3.5677272577965504 0.1711233750220791
0.2536410776816074 15.277369496261821 1723267.674094542 3.7847820182796377 0.17388770454028615
0.2660357879489357 14.98136010873508 1383202.603236651 4.011322469858877 0.17666570627702557
0.2788081947889848 14.723663473935117 1116574.2267049246 4.2476058729769 0.17945609523999626
0.29196044693548767 14.498545167737962 906034.8653743289 4.49425682032502 0.18226542691145792
0.3054930866348491 14.301396181135507 738823.8214672081 4.751427826718579 0.18508934705338312
0.3194061054158885 14.128332452163882 605237.623428987 5.019806217869796 0.1879345852839601
0.33370145944820384 13.976159686663054 497784.8955717805 5.299609098137533 0.1907976288158001
0.3483804260993093 13.842188033273342 411124.4476293552 5.591573058853998 0.19368493598357397
0.3634388517606628 13.72417223158929 340746.2540533207 5.895855281551273 0.19659138349188124
0.3788902190420262 13.620183811808676 279483.8261979955 6.213323940393536 0.19952473852129246
0.39471782872465383 13.528618920511553 236492.3309670225 6.5442437814854175 0.20248131021687307
0.4109391977247255 13.448054197432429 197943.19870901946 6.889302473292359 0.2054645613640066
0.42754305877936793 13.377213089396559 166142.62589079802 7.249211416354394 0.20847768295011668
0.4445354430427982 13.315053955392601 139861.89015109692 7.624240112474548 0.2115163908928469
0.4619117419460525 13.260705616660166 118036.57458364227 8.01531640791662 0.21458652129685232
0.47967210722541537 13.213285293534812 99861.51777613528 8.423154611549329 0.21768987676353624
0.49782443861710535 13.172107350986659 84684.36557618158 8.84820988938032 0.22082413351006874
0.5163588297361108 13.136506325408156 71976.46435598278 9.291326797103602 0.2239922950103763
0.5352727152775658 13.105948330282748 61309.59485175921 9.75340301108974 0.2271974746035405
0.5545747525038099 13.079909726460535 52332.060314196 10.235247519130452 0.23044102226271265
0.5742534945388702 13.057920523872227 44757.56502407553 10.737351532527683 0.23371989232755894
0.594303765742447 13.039611858391664 38350.81453406941 11.260919429701332 0.23703976915627153
0.614736203744359 13.024550474141972 32921.900652114215 11.80690706644759 0.2404025107172941
0.6355320898136566 13.01248540549555 28079.465540561032 12.37629267711794 0.24380974857745125
0.656695295693685 13.003079708798024 24386.487937315316 12.96979269349723 0.24725974616331123
0.6782256256106051 12.996010943885048 21043.177664403418 13.588678609443374 0.2507566740707411
0.7001082428833149 12.991070461660998 18185.591492948275 14.234173322842723 0.25430346644375107
0.7223361365741034 12.98801497532642 15740.51272131208 14.90746551536546 0.2579021059799705
0.7449180946554935 12.986647866090122 13644.313129560793 15.609620009967209 0.2615528465267152
0.7678317013526623 12.986765326258523 11844.46021196494 16.3418319161395 0.26525687832128547
0.791072345969289 12.988130159187888 10228.364217254884 17.105749746368357 0.2690192330204907
0.8146388378046365 12.990657439519657 8963.380819922708 17.902827219826506 0.27284234058990425
0.8385158547623406 12.994116758559455 7813.369149688821 18.73447220305245 0.276727669232791
0.8626918980769881 12.998375818089203 6820.156694148909 19.60194272764943 0.2806749337125991
0.8871608071683071 13.003321858123034 5960.621922134683 20.507364000344847 0.28469086477997346
0.9119146847541463 13.00880721861469 5215.583184708599 21.452528376850676 0.2887784722627728
0.9369283245442965 13.014701389878796 4569.212948011797 22.43897398649879 0.2929381188921943
0.9622015064968592 13.020895955561288 4008.3090930721555 23.468616068927624 0.297172728376861
0.9877198604676166 13.027290351256305 3519.7393011172053 24.543927090668358 0.3014888239617666
1.0134565399664583 13.0337419690398 3094.683227772905 25.666912872059335 0.3058885169045579
1.0394137634885734 13.04019995846867 2724.012790553564 26.839404558148345 0.3103721123206833
1.0655609382202504 13.04653798278265 2400.3703402689207 28.06455795831906 0.31494880576808715
1.0918839117678314 13.052653315348802 2117.7274877154646 29.344501768101477 0.3196195588128004
1.1183767192239076 13.058495662545955 1870.4270277634125 30.681840001763973 0.3243880267177825
1.1450014738574004 13.06395139808053 1653.6661457976213 32.08012617911258 0.3292633135004964
1.1717590709493173 13.068968478105456 1463.5961830845752 33.54113169279862 0.3342420224288732
1.1986084934454106 13.073425815172595 1296.7588626710374 35.06947530512484 0.33933824595201223
1.2255496524487275 13.077296594828157 1150.2024240538547 36.66727630407942 0.3445493411108588
1.2525396880628215 13.080466748733487 1021.2372202834998 38.339396885223216 0.3498886057735139
1.2795760365521367 13.082917978909249 907.6783935138661 40.088249804344464 0.35535366866475754
1.3066156989123452 13.084508127680284 807.6239415862173 41.919230305447854 0.36095864845326486
1.3336475598679234 13.085230714291843 719.3504525687991 43.8356815264004 0.3667047213248625
1.360651195367018 13.085036761872374 641.3122131166932 45.84253142688637 0.3726009885152887
1.3875781938496108 13.08379510718849 572.4248165049756 47.94498644879783 0.3786567223730311
1.4144301693403638 13.081513590612726 511.395823309651 50.1476515842546 0.3848768226195954
1.4411575644800274 13.078091544883312 457.3763451335317 52.456022893207816 0.39126971491486784
1.467742178846812 13.073490596506513 409.47614569444886 54.8763689226061 0.3978463481567013
1.4941478295192128 13.067636731360446 366.95094721151037 57.41487037652079 0.404615768000489
1.5203572285891953 13.060506764497426 329.2131402953336 60.07814524776474 0.41158772892716183
1.5463384544248457 13.052038748031688 295.63077213215854 62.873288175273714 0.4187727525849009
1.5720536623226216 13.042174609695033 265.77183497311347 65.80791356843527 0.42618219089086345
1.597475579772199 13.030867297612387 239.20381734961427 68.8902028805931 0.43382829445006704
1.6225625338458587 13.018067438298491 215.4904337109031 72.12895646146242 0.4417242869167926
1.6473124334832656 13.003750623010047 194.31827509009727 75.53365047206047 0.4498844459994425
1.6716621142542947 12.987839065864392 175.4357816999839 79.11441396129133 0.4583238350345053
1.6956030671787596 12.970313333627487 158.55331561051747 82.88101412813262 0.4670539832756683
1.719066654109352 12.951089081504293 143.4549108056376 86.8463672244103 0.4760972548117155
1.7420726860078697 12.930213746219117 129.94444167984403 91.02227067569122 0.48546891369597217
1.7645577298348487 12.907600301046498 117.81709187829978 95.4223188944042 0.4951889592522677
1.7864845045042088 12.883182847428385 106.94973903919087 100.06064623588657 0.5052768061980035
1.8078248840870352 12.856955066680813 97.20155000272462 104.95350922735427 0.5157571577135156
1.8285508208250891 12.828872936865977 88.44171685056146 110.1172491416168 0.5266518748685649
1.8486253721000876 12.798916821796098 80.56211355582785 115.5696942610267 0.5379851546045216
1.8680175311163092 12.767041588043384 73.47195968875947 121.33106067943082 0.5497864238041068
1.8866947166121917 12.733228090202571 67.08805177686068 127.42262885037495 0.5620850422122646
1.9046245585120458 12.697444308947093 61.33177361997799 133.86710602616287 0.5749113401348893
1.9217590739046717 12.659618387944914 56.144009843583724 140.6895090494108 0.5882993521471608
1.9381045558576648 12.619842728244212 51.45534901812355 147.91777128131758 0.602288374186712
1.9536029793333611 12.578003841363733 47.22360433102655 155.58069276271826 0.6169153181413795
1.968231997780974 12.534121647526478 43.39208847010314 163.711321496289 0.6322258541330384
1.9819609373522482 12.488167129978422 39.927172776421976 172.3435736460468 0.648262182978552
1.9947588454287422 12.440126727671117 36.78934580723871 181.51680989779675 0.6650778650686421
2.006605418379566 12.389997573308252 33.94661335970596 191.27277821583687 0.6827266373821933
2.017470124992564 12.337782478117738 31.365389427228326 201.65741466874366 0.7012676050512126
2.0273221210019035 12.283445344110646 29.025545818712708 212.72097546587145 0.7207646644060844
2.036147456618473 12.227021070392865 26.901935608889527 224.518005156682 0.7412852953532748
2.0439080417789484 12.168475065620912 24.970517585502055 237.11037362323643 0.7629092148116223
2.0505853972747126 12.107815611023485 23.214498057816506 250.5640185843794 0.7857162919707967
2.056169756356044 12.045094301840994 21.617884123179742 264.95251754353484 0.809796583780416
2.0606416209654754 11.980314719157663 20.16419464093371 280.35752231689685 0.8352498821739545
2.0639732040563428 11.913480822031767 18.84242197355953 296.86801500692513 0.8621811564127726
2.066147064278286 11.84461593218823 17.637573052373057 314.5841504966937 0.8907106577820005
2.0671616170766014 11.773777105641232 16.54168294424431 333.6157065438774 0.9209660425896798
