M[M_sun], R[km], Lambda[1], P_c[MeV/fm^3], rho_c[fm^-3]
0.24162668629717493 15.618656898711224 2160425.4255784233 3.5677272577965504 0.1711233750220791
0.2536442627946654 15.277287558250016 1723034.9516384832 3.784847725004101 0.1738885235429086
0.2660426466523306 14.981222182918172 1382949.518354943 4.011460598415275 0.17666737547911174
0.278819485920731 14.723429376604866 1116320.7635693084 4.247821096374431 0.17945859150707288
0.2919763073343294 14.498291816817956 905764.1229990885 4.494554786090847 0.18226874482941466
0.3055129619392865 14.30111648571787 738574.107195996 4.751818652050811 0.18509356871287258
0.31943127397487253 14.12802952238012 605023.2585331263 5.020292781573918 0.1879396335701867
0.33373254868260704 13.975787470844471 497584.9839511359 5.300204209942647 0.19080362060420852
0.3484150403334515 13.841906588439588 410930.84482108214 5.592278204489037 0.19369175846157186
0.36348069744940503 13.723846417368572 340606.34989390615 5.896686302882382 0.19659918862008588
0.3789346669655884 13.6199038975207 283242.8254467138 6.214290893742178 0.19953355597154446
0.3947696318478748 13.528362922718287 236356.09007571198 6.545345662789292 0.20249097222733933
0.41099777213945154 13.447767338698316 197824.61216358794 6.890560553986066 0.2054752757071273
0.42760866771600803 13.376965965318814 166035.52223093077 7.250637501822392 0.208489480589719
0.4446061426782665 13.314829047734875 139765.87108249267 7.62583026105777 0.21152904949803153
0.461988352650996 13.26047332584358 117945.43185372553 8.01709835515065 0.21460030609935
0.47975771340199047 13.213077706212951 99779.13353293085 8.425142252419285 0.21770482104420733
0.4979178985254081 13.171905977514504 84616.34594308182 8.850395895060435 0.22083996112520116
0.5164596965518619 13.136323279152016 71916.68354661533 9.293746543355851 0.2240093301748457
0.5353804916722211 13.1057823356483 61254.13779482666 9.756072903964 0.22721575410341435
0.5546900452424574 13.079770777415765 52285.354420098476 10.238180224201475 0.23046052357058944
0.574376601875098 13.057799054036128 44713.81300722238 10.740543761284004 0.23374038742500322
0.5944363568274047 13.039480094044343 38314.1285615367 11.264414450360206 0.2370616061085951
0.6148768147434975 13.024464694673894 32888.816828379604 11.810725525317201 0.2404257333181793
0.6356840701627103 13.012421798262055 28048.05244544751 12.380456508551324 0.24383440293233696
0.6568581078409612 13.003008577436153 24360.015063045757 12.974282776561505 0.24728540963686144
0.6783928922940629 12.995966801360622 21018.56650258332 13.593558702959745 0.25078384512398494
0.7002851229269175 12.991052564687756 18163.83777628867 14.239469592291194 0.25433219896399356
0.7225236565145355 12.98799944792326 15721.50089135691 14.913205807374675 0.2579324570676426
0.7451145822548262 12.986652166999473 13627.582515181175 15.615777953638688 0.2615843218500383
0.7680383969168975 12.986766548629943 11830.528209579894 16.34849090089054 0.26529007169013835
0.7912878074816025 12.988149236702728 10284.752317719 17.112943191235505 0.2690542123069748
0.8148645648227628 12.990678577901548 8951.44015080919 17.910590759444503 0.27287917803027195
0.8387532572401092 12.994138992449447 7803.677597100016 18.742771403497933 0.2767657997647164
0.8629366320264759 12.99842504435269 6810.445912646181 19.6108854957372 0.28071505427310023
0.8874218533890985 13.003379410970611 5952.17840920395 20.51699337599375 0.28473306219712524
0.9121809245590495 13.008866110926617 5208.3663839504925 21.462890347191564 0.2888228392190807
0.9372056849213329 13.014761209974848 4563.039843749417 22.450025388147946 0.29298402012293095
0.9624923218942223 13.020976207119062 4002.2451118898152 23.48049558477891 0.29722097462048114
0.9880165975479801 13.027360927966825 3514.8243577746243 24.556690634488355 0.30153952746222473
1.013763683414083 13.033816757577608 3090.392998673411 25.680511038992652 0.3059409948496126
1.039730693240645 13.040276356304792 2719.7687764809266 26.854003582810808 0.3104272648070183
1.0658856405414796 13.046605362799108 2396.730947983959 28.080226175571973 0.3150067693167687
1.0922236019500804 13.052735328377787 2114.515719470836 29.36118364846118 0.3196796033393686
1.1187231404487727 13.058568121043903 1867.1827435688917 30.699734702360587 0.3244511514336847
1.1453584824606875 13.064022678583639 1650.8817245320024 32.099175297057386 0.3293287643934921
1.1721248210856918 13.069036123412962 1461.0637168437054 33.561558662800216 0.3343108634238873
1.1989848262200307 13.073483142387177 1294.5471945824381 35.09137653355612 0.33941066737699804
1.2259343949382293 13.077347451092423 1148.28550832323 36.69058823736474 0.3446245417990275
1.252933437085408 13.080514409668563 1019.5349689176766 38.36430984090175 0.3499673144167022
1.2799782325671496 13.082950935998683 906.0771778582707 40.11485441150453 0.3554359744312858
1.3070328614443414 13.084551273719251 806.2116688831802 41.94755864513417 0.36104428931586124
1.3340630963549225 13.085242277781544 718.036293615389 43.86605119081779 0.36679499567354484
1.3610755321151453 13.085029249461853 640.1743720943732 45.8748787840303 0.37269505023580696
1.388016992405396 13.083780001153405 571.3809644210115 47.97944965693607 0.3787548157883582
1.4148615496135368 13.081452673458111 510.45866868078434 50.18460852376975 0.38498038003685575
1.4415948023933294 13.078008359260595 456.55254655227867 52.49541489857601 0.3913778706026999
1.4681904281963996 13.073401771103299 408.71097489766316 54.918370408210926 0.397959408602147
1.4946020468156882 13.067526688300209 366.2565229254752 57.45966988409572 0.40473406338284523
1.5208147971097385 13.060372425176654 328.6018255598148 60.1259467112091 0.41171161506354575
1.5467998420149722 13.051873983296938 295.07209800787683 62.92431231167139 0.4189026130686317
1.5725165982147145 13.041983479401935 265.25884865083356 65.8623994093253 0.42631843944333564
1.5979309125335417 13.030638699071206 238.72580642507342 68.9484094592593 0.4339713775092435
1.623040233340249 13.017822245836754 215.06457093470064 72.19116467394078 0.4418746864881872
1.6477812422395952 13.003458459978358 193.93718895127208 75.60016513176166 0.4500426827985863
1.6721301332994574 12.98751207605812 175.10913293544726 79.18521877775589 0.4584890218612574
1.6960671911134622 12.969951571806458 158.24293028647935 82.956799868775 0.46722813868694063
1.719546474982171 12.9507250752769 143.1677257426078 86.92752398836974 0.4762810349521961
1.742527868129292 12.929773561170123 129.67790411215609 91.10883224483364 0.4856614813251458
1.7650085309525563 12.907105505820988 117.5814932377152 95.5151190899971 0.49539258360267524
1.786919420850795 12.882625822852276 106.74236105190606 100.15976585993302 0.5054907020465126
1.8082697555872618 12.856382541675266 97.01010829766354 105.05946223211883 0.5159821491412193
1.8289736742727003 12.828227775866223 88.26629382096829 110.2307663623283 0.5268894869029759
1.8490533271766594 12.798244582780184 80.40470371117748 115.69151024662236 0.5382367843952972
1.8684257443613477 12.766288866839547 73.32502404208854 121.4615672945626 0.5500520874471762
1.8871021317692749 12.732448927633035 66.9554925203141 127.56238062587059 0.5623652440924192
1.9050205089589343 12.696615030981016 61.20985086064294 134.01674661178362 0.5752067771138941
1.9221580616351814 12.658777464475621 56.03099183246017 140.85023382928307 0.5886125051388967
1.9384663502811805 12.618869726427796 51.35178078565951 148.09054267792777 0.6026207085640046
1.9539569545331286 12.577004964778391 47.126490337719076 155.7659988278233 0.6172664916841522
1.968566748790032 12.533050687010741 43.30707878270683 163.91047964952025 0.6325981783492718
1.982277182316506 12.487032546171374 39.848565801927755 172.55802657880508 0.6486581468710915
1.995059705896459 12.438930141400741 36.71858515400936 181.74752952443296 0.6654981240676687
2.0068892977624784 12.388747288073084 33.87731274594541 191.52126267496652 0.6831733408744936
2.017728176934058 12.33645096805185 31.30414412783919 201.9253165741173 0.7017431045069069
2.027557720628489 12.28204777603229 28.968984907864822 213.00944431185775 0.7212693233935946
2.036358310430386 12.225553266155893 26.849466464176004 224.82971072989767 0.7418240858572352
2.04409463940213 12.166934748191936 24.92381529197182 237.44683436232768 0.7634829112795829
2.0507454361677038 12.106201949837414 23.171080246591888 250.92802650262158 0.7863293475931887
2.0563084419990885 12.043428677727569 21.57874799517308 265.3466515700687 0.8104522171679545
2.0607448719900385 11.978554848644206 20.12761448295313 280.7840777151696 0.8359497737397885
2.0640412187794377 11.911631332107307 18.808466863740975 297.33063318020106 0.8629306807459197
2.066188038351983 11.84270163216907 17.607281973177802 315.086694501764 0.8915151318913195
2.0671721715547933 11.771787106005688 16.511760795156817 334.1614906226928 0.9218280649452442
