M[M_sun], R[km], Lambda[1], P_c[MeV/fm^3], rho_c[fm^-3]
0.24162668629717493 15.618656898711224 2160425.4255784233 3.5677272577965504 0.1711233750220791
0.25364501335714473 15.277269035905931 1723267.6717407382 3.7848388816034286 0.17388841331418542
0.2660417629176891 14.98124961676597 1382923.1999318444 4.0114420076363615 0.1766671508205201
0.27881790191910194 14.723475340014012 1116450.3623996149 4.247792129071082 0.17945825553000683
0.2919735913193494 14.498359011407185 905813.1588470731 4.494514681941265 0.18226829826040136
0.30551105411134616 14.301135994233972 738614.6680076243 4.751766049104957 0.18509300050066313
0.3194281768565191 14.128071742576674 605026.3059258799 5.020227292138398 0.18793895409201658
0.33372631410386305 13.975903171659201 497638.74472276185 5.3001241095931695 0.1908028141265998
0.3484102992796264 13.84194900589599 410958.30935101956 5.592183293022587 0.1936908401670247
0.3634730437094964 13.723937872808365 340634.2803769834 5.89657444766598 0.19659813805222234
0.3789284457656285 13.619944764702435 283260.8214601493 6.214160740865863 0.19953236913402672
0.3947631676583551 13.528389980418199 236374.44247494586 6.545197347173791 0.20248967169975596
0.41098986901243584 13.447797953140626 197835.22309497616 6.890391211996597 0.20547383351968337
0.4276003705991304 13.376999950217982 166054.71962886004 7.250445544012866 0.20848789257195538
0.4445963683486493 13.314860302816223 139773.19182262503 7.625616217784949 0.2115273455759505
0.4619797195958336 13.260512379113514 117955.95153300301 8.016858492449362 0.21459845056743487
0.47974738632274555 13.213090812799487 99790.84771953645 8.4248746994442 0.2177028094198669
0.4979057854261396 13.171927664373632 84622.84800177866 8.85010163816075 0.22083783057952114
0.5164458346356359 13.136350178047294 71924.43765376661 9.293420819829706 0.22400703706091515
0.5353661273765015 13.105798519892687 61262.97427390519 9.755713504803255 0.22721329346651883
0.5546741005480701 13.079784183801355 52293.15906627496 10.237788651747014 0.23045793968711545
0.5743595194414453 13.057805661106707 44717.58552486701 10.740114042344942 0.2337376284963042
0.5944180309815631 13.039497825306464 38319.37525251335 11.263943967169874 0.23705866652110794
0.614858280717961 13.024499749863987 32616.360283671802 11.810211497820305 0.24042260717336222
0.6356640158734819 13.01242886983167 28284.289246780074 12.379895983223621 0.243831084020279
0.6568371615729603 13.002997546210333 24366.289944857483 12.9736783274678 0.24728195485370782
0.6783705054217637 12.995966250444864 21021.960647177348 13.592901745346834 0.25078018736000574
0.7002614185903815 12.991056341904422 18167.095320436307 14.238756602797576 0.2543283309611932
0.7224983081135777 12.987991445233048 15724.376774923547 14.912433036220358 0.25792837113525147
0.7450880482216187 12.986651558772927 13629.905528123161 15.614948951174426 0.26158008453934006
0.7680112851456204 12.986755508054866 11832.695440057101 16.34759443867575 0.2652856030508381
0.7912589807863795 12.988135959353096 10286.93556623166 17.111974768985476 0.2690495031975082
0.8148359429595655 12.990665955423713 8953.425027149719 17.90954557846441 0.27287421872125545
0.8387204947709067 12.994140702558703 7805.028084213289 18.74165410001313 0.27676066633331203
0.8629037311246416 12.998414472662223 6811.6632430666 19.60968153930189 0.28070965287987054
0.887387307132157 13.003364145431163 5953.197716404607 20.515696970512032 0.2847273811472935
0.9121458258440187 13.008861494176037 5209.222332457083 21.461495299602095 0.28881686602929024
0.9371677093234096 13.014757725546701 4563.545451835623 22.448537510416195 0.2929778403259024
0.9624540160411366 13.020963055261493 4002.995281322659 23.478896201278612 0.2972144790488633
0.9879766539226406 13.02734939642633 3515.245646415969 24.55497221510201 0.30153270099777474
1.0137213543280716 13.03380813508029 3090.6198738967037 25.67868023642718 0.3059339294299198
1.0396881039174832 13.040266231214728 2720.3623721864037 26.852038010329814 0.3104198392281249
1.0658402127939004 13.046597085816996 2397.129052321047 28.078116629953918 0.3149989651902268
1.0921763547804078 13.052729881575218 2114.725324804448 29.358937607496483 0.3196715189709719
1.1186777637272642 13.058554840253072 1867.5953140314068 30.697325344571414 0.32444265226796093
1.1453104908078025 13.06401239093349 1651.270327351198 32.096610487426325 0.3293199519602234
1.1720760858177515 13.069019800979499 1461.4201864487131 33.558808309448246 0.33430159444951785
1.1989336662467531 13.073484752826284 1294.8174830538733 35.08842765187469 0.3394009162247211
1.2258817791366294 13.077345760873147 1148.5347925622043 36.68744938637619 0.3446144163516221
1.252880255002284 13.080499985689137 1019.6779369773817 38.36096827932119 0.34995679215962905
1.279924307987637 13.082941059583627 906.3063289321741 40.11127214960665 0.3554248921097301
1.306970074449706 13.084522354051733 806.4206757212576 41.94374425330807 0.36103275783149313
1.334008631350116 13.085244129442803 718.2711268600079 43.861961892524526 0.36678284016418794
1.3610180100707872 13.085032110469381 640.3317643202365 45.87052314954486 0.3726823846423915
1.3879519057191219 13.083766148140853 571.5470265848822 47.97480907736831 0.37874160720089667
1.4148022706782553 13.081458478088557 510.57469759946105 50.17963210008139 0.38496643554926774
1.441533982080728 13.078017465073158 456.6628356431705 52.49011053252346 0.3913633068008938
1.4681303719424867 13.073411726134006 408.8194757526498 54.91271460646136 0.3979441842010109
1.4945409323612615 13.067541470010909 366.3606302550411 57.45363725002069 0.404718133905198
1.520753294704925 13.060389620252032 328.69630366226426 60.11950977444754 0.4116949325779464
1.5467373989460744 13.051898809580756 295.14703209053613 62.917441340680895 0.4188851259011944
1.5724544921625012 13.042010063587174 265.33355368870076 65.85506220503204 0.4263000918607744
1.5978686737173902 13.030669080423205 238.7973612867327 68.94057112767625 0.43395210937001527
1.6229673781552503 13.017846950338946 215.13054931665235 72.18278737537221 0.441854432858257
1.647719017503703 13.00349763439553 193.98857577195662 75.59120780390802 0.45002137352789606
1.6720665935339794 12.98755671588089 175.1405110514244 79.17568361706896 0.4584667764404641
1.696004288228058 12.969997060236508 158.28818735030686 82.94659381668464 0.4672046852089618
1.7194841350664505 12.950778109923023 143.20762731560814 86.91659449086796 0.4762562850177696
1.7424649553717018 12.929823771501303 129.70819683358118 91.09717475319663 0.4856355476972219
1.7649471776385632 12.907170864196507 117.61081691004117 95.50262126771943 0.49536516058996993
1.7868734057184608 12.882729489421038 106.76629470099319 100.14641682369933 0.5054618954054518
1.8082100997759936 12.856457908795102 97.03626232312857 105.04519273999439 0.5159518478447831
1.8289258293025705 12.828322744431494 88.28621395934374 110.21550088693404 0.5268575708546614
1.848995968166878 12.79833279083271 80.4260789024636 115.67510394396838 0.5382028946353938
1.8683693764121758 12.766386421204432 73.34854490287044 121.44399030758832 0.5500163071429437
1.8870453030153453 12.732556828090612 66.97086397429464 127.54360109002647 0.5623276583382735
1.9049673835562155 12.696727441804528 61.224341875126925 133.99659211007685 0.5751669858696077
1.9221063256613673 12.658897521197868 56.04471157801375 140.82858614036743 0.5885703272086891
1.9384169680630274 12.61899633422042 51.364024951514004 148.06727212140314 0.6025759464907472
1.953910741670377 12.57713823726796 47.14061439462737 155.74103964839668 0.6172191915406896
1.9685227633231193 12.533199089187748 43.31903825171817 163.8836805460175 0.6325481174012125
1.9822344909774603 12.487184437888002 39.85838977477808 172.52914070594178 0.6486048122651654
1.9950183808541162 12.439092485475419 36.7255392584952 181.71645213846068 0.6654415161782078
2.0068510924008223 12.388918367376068 33.88487880521896 191.48779189323758 0.6831131700487578
2.0176938382139444 12.336629557337355 31.312601801426613 201.8892296920482 0.7016790538509117
2.0275256332210634 12.282234675017289 28.976714253686715 212.97058643465198 0.7212013438622161
2.036330308203163 12.225752568369282 26.856293790816032 224.78772205291028 0.741751507429454
2.0440698762486864 12.167141901265532 24.929933338268395 237.40151026199686 0.763405629524976
2.050729626461529 12.106457959842993 23.17733858230369 250.3993468848221 0.7853365691227351
