M[M_sun], R[km], Lambda[1], P_c[MeV/fm^3], rho_c[fm^-3]
0.24162668629717493 15.618656898711224 2160425.4255784233 3.5677272577965504 0.1711233750220791
0.2536434309755551 15.277311295045978 1723337.9528738824 3.784809387266058 0.17388804568149863
0.26603813864265713 14.981297432791978 1383045.4781712242 4.011380004478777 0.17666640154895244
0.2788126372484641 14.723577483084506 1116479.980384272 4.247695519250949 0.17945713500168117
0.29196660866790997 14.49848412384752 905931.5329585504 4.4943809301583935 0.18226680890325692
0.305501223664811 14.30128827102255 738721.9217482326 4.7515906136548685 0.18509110546297858
0.31941708182822937 14.12819260808068 605125.7693995939 5.020008880528666 0.18793668798726645
0.3337150557742989 13.97599709071812 497718.81215606234 5.299856971403034 0.19080012448828756
0.3483944304099915 13.84208199102684 411038.8656628171 5.5918667610791815 0.1936877776333973
0.3634564461339038 13.724032557820486 340681.47766784846 5.896201410360824 0.1965946344069092
0.37890861090657263 13.620049803102463 283332.5233429294 6.213726683654242 0.19952841105489566
0.394739767006869 13.528495525453394 236415.18315122035 6.544702720524178 0.20248533449224673
0.4109635705715018 13.447922850414113 197882.79029641583 6.889826466821186 0.20546902391278343
0.4275700686658675 13.377110964231118 166104.26736677255 7.249805380507282 0.20848259666333352
0.4445640288971186 13.314976867642306 139817.00330545453 7.624902405115521 0.21152166316812182
0.4619442619706901 13.26061051536633 117997.94111590048 8.016058579569755 0.21459226259460934
0.4797084102733935 13.213186083784176 99825.72354312 8.423982448397208 0.2176961009393376
0.49786406972930325 13.172015754284997 84656.56495462732 8.849120338666294 0.22083072555190425
0.5164001477843441 13.136445328832805 71948.58723346243 9.292334590822975 0.22399938994098928
0.5353178170977259 13.105889501596675 61285.417451601075 9.754514980945496 0.22720508773777295
0.5546234622518247 13.079845095054166 52308.995233682945 10.236470911886203 0.23044916958121892
0.5743036960726811 13.057864621512111 44739.36810868059 10.738681032348845 0.2337284281282383
0.5943596346372803 13.039542943503577 38335.78438143218 11.26237502757356 0.23704886375811815
0.6147943232380167 13.024518979248455 32907.562352550165 11.80849735953834 0.2404121823526313
0.6355932349885327 13.012451365255023 28297.15425544749 12.378026798872941 0.2438200164410396
0.6567654329389303 13.003026538896401 24375.552547571027 12.971662680674372 0.24727043424319145
0.6782960425980974 12.995980392260858 21032.68381218351 13.590711012322615 0.2507679899454594
0.7001823566349612 12.991070287610984 18040.655377753563 14.236379036491224 0.2543154325479441
0.7224135617781992 12.988010996164263 15733.345452040243 14.909856134781029 0.25791474608597137
0.7450004034268511 12.986646963565336 13540.984530848122 15.612184553147381 0.2615659547703235
0.7679191147811241 12.986751777476243 11838.047701897576 16.344605106754514 0.2652707019809611
0.7911621378081548 12.988129270231836 10291.610593861917 17.108745499420312 0.26903380035313523
0.8147342992441599 12.990658270240935 8958.32028992768 17.90606037273737 0.2728576816692848
0.8386148643815067 12.994121522075536 7809.441264470508 18.737928416727243 0.2767435487463337
0.862793189980282 12.998395466921062 6816.275986682741 19.605666933391415 0.2806916418750297
0.8872667092615798 13.003335388664757 5956.5924708855155 20.511374118591736 0.28470843773991
0.912026472828737 13.0088277190203 5212.509167141291 21.456843555017432 0.2887969486060634
0.9370437870573549 13.014720339253383 4566.556162479599 22.44357625116169 0.29295723407947183
0.9623203735475602 13.020925172016987 4005.9412584628153 23.473563164244528 0.29719282000086816
0.9878440723351225 13.027315079178143 3517.5445262733174 24.549242296650597 0.3015099387518873
1.0135840738704156 13.033779272031012 3093.115417065292 25.672575616984503 0.3059103705278072
1.0395455079498184 13.040232550001186 2722.2735978755086 26.84548405620406 0.3103950795696053
1.0656944302948428 13.04656147405329 2398.9650887635744 28.071082660465777 0.3149729434784858
1.0920241301084443 13.052683233745176 2116.2910963180802 29.351448553129096 0.3196445629735521
1.118521083838079 13.058524866977669 1869.1821676078994 30.689291789368383 0.32441431338142085
1.1451501363114258 13.063988372340685 1652.6085585238427 32.088058652183946 0.32929056869665246
1.1719117929466727 13.068997454344743 1462.6072215001766 33.549637877370095 0.33427068914790337
1.1987652005926384 13.073450119039627 1295.8387208752983 35.07859533803067 0.33936840342838526
1.225708987829418 13.077319308458542 1149.4319956684478 36.676983724479385 0.3445806557463927
1.252703587590786 13.080490306051393 1020.4926252830264 38.34980335544726 0.34992157118985856
1.2797429418135384 13.082931257606592 907.0104919692212 40.09932820200808 0.3553879415260752
1.3067866639028842 13.084518016321974 807.0391549095016 41.93102641308334 0.3609943098737494
1.3338207068852068 13.085235706249271 718.8121313773196 43.84832756446088 0.36674231189002754
1.3608276237300523 13.085038521974049 640.8330114022692 45.85600090331761 0.3726401559230607
1.3877579843161774 13.083779047911015 572.0119636278512 47.95933688115774 0.37869756833594775
1.4146136800622728 13.081496129876466 510.9884053880927 50.16304028751248 0.38491994346199415
1.4413356693121508 13.078043781143414 457.0308151197461 52.47242544383266 0.391314750173379
1.46792834526182 13.073453381027187 409.1526606643371 54.8938579300589 0.39789342541943484
1.4943370900572812 13.067590616727077 366.66861337010585 57.433524330778646 0.4046650247171549
1.520547718718902 13.060452005665997 328.95335989924143 60.0980490457267 0.4116393132187546
1.5465305324030603 13.051970261864154 295.3932537207501 62.89453369968052 0.4188268241336103
1.5722466378164932 13.042095437711158 265.5605749041847 65.83060032515357 0.4262389219188271
1.5976699544825737 13.030774385474304 239.00670454961397 68.9144387008209 0.4338878707965782
1.6227577410245937 13.017961218697229 215.31619310888217 72.15485827622068 0.44178690922472885
1.6475087669601587 13.003629892322566 194.16838443613352 75.56134516724995 0.44995033102298065
1.671857726233463 12.987702119520364 175.29859894890305 79.14389475961609 0.4583926133997147
1.6957955457837481 12.970162172000325 158.42583038806714 82.91256857125806 0.46712649529406913
1.719260154058303 12.950923132079907 143.33819954324494 86.88015769500522 0.47617377360238516
1.7422632576636001 12.930027335869289 129.82681984744806 91.05831124071196 0.48554909068708824
1.7647433970071622 12.907388322017983 117.723188922592 95.46095663107215 0.49527373907390454
1.7866710793535763 12.882962496727343 106.86073571144844 100.10191478364322 0.5053658619336772
1.808010486219124 12.856715353830957 97.12206806846469 104.99762251879945 0.5158508323803646
1.8287228320043587 12.828593075283688 88.3622021240425 110.16461076123483 0.5267511731389929
1.848803661332616 12.798637333822706 80.4923501938018 115.62041118620803 0.5380899182708807
1.868191991983106 12.766739472762781 73.4070643254712 121.38539540380297 0.5498970293914734
1.8868648002044983 12.732902497015264 67.03377313311957 127.48088632833166 0.5622019645056792
1.9047895440286857 12.697099723096153 61.2799350884512 133.92940588780866 0.5750343394057135
1.9219347916674596 12.659297145677955 56.095654194866356 140.7564229663538 0.5884297259034423
1.9382507287009951 12.619419937497174 51.41073374186882 147.98969982315953 0.6024267323156131
1.9537512062764386 12.57759359371772 47.17927481470232 155.65783907516493 0.6170615181259207
1.9683712229618435 12.533678240824134 43.35510806856657 163.7943474774547 0.6323812424867277
1.982091659149983 12.487693345105857 39.894896199084855 172.43285255357716 0.6484270267197529
1.994885786929027 12.439630959899198 36.75869581803319 181.61285983289918 0.6652528213572388
2.0067194335799052 12.389468929690265 33.91711304199167 191.37622268115297 0.6829126007381218
2.017578568714679 12.337227214912259 31.33969899158473 201.76894144558622 0.7014655540788988
2.027419454872181 12.282858445413812 29.002293371779096 212.8410629690813 0.7209747503083429
2.036235411211725 12.226408085235557 26.880201628181613 224.64776443643123 0.7415095873574516
2.043985799497008 12.167831392874453 24.950687849073912 237.25043661955465 0.7631480350867509
2.0506520508774444 12.10714364811227 23.196144774773398 250.7157007559265 0.7859719938259537
2.056224123320722 12.044392639496133 21.600141932811013 265.1166446193023 0.8100697007700751
2.0606846002841217 11.97958252575646 20.149239406053603 280.53517049884607 0.8355415079723708
2.0639971337018834 11.912702981845802 18.828065579917368 297.0605857209104 0.862493155474464
2.0661654182624023 11.843820384040098 17.624436154269777 314.79333799866714 0.8910455258286449
2.0671655238940083 11.772946166774792 16.527809679443454 333.84288998408044 0.9213248606861953
