M[M_sun], R[km], Lambda[1], P_c[MeV/fm^3], rho_c[fm^-3]
0.24162668629717493 15.618656898711224 2160425.4255784233 3.5677272577965504 0.1711233750220791
0.253638618070635 15.277449565277271 1723276.9885101342 3.7847359969578926 0.173887130906712
0.2660307983760457 14.981437313681727 1383273.2293885464 4.0112257259462245 0.17666453718393552
0.27880013047602115 14.72380532796967 1116656.377791553 4.247455135628117 0.17945434691390671
0.29194860230191727 14.498780152475819 906252.4015038881 4.494048136303496 0.18226310316644523
0.30547828709502917 14.301605225644767 738928.9324053711 4.7511541128191235 0.18508639042087818
0.31938918379319253 14.128484284874512 605321.4919850132 5.01946546019482 0.18793104979156183
0.3336815334073672 13.976333321478771 497958.2663132997 5.299192328531733 0.19079343263741552
0.34835509275410803 13.842351041078137 411235.01681103936 5.5910792391618065 0.1936801581422069
0.3634097838248037 13.724393145170415 340862.2491596701 5.89527332108385 0.19658591759601524
0.3788566530708596 13.620376150801562 283508.6070246517 6.212646800150072 0.199518563817602
0.394682032600686 13.528805757901903 236588.20358854145 6.543472166913549 0.202474544199478
0.4108987306350468 13.448212210480712 198031.34134584322 6.888421493277306 0.2054570585685095
0.4274983216393157 13.377379627389844 166227.2689964463 7.248212808186837 0.20846942172066782
0.4444851187475397 13.315232785123525 138308.51944994446 7.62312663841524 0.21150752692337332
0.4618573350639304 13.260863130163372 118097.87245315143 8.014068652771943 0.21457686890204153
0.4796124317021231 13.213434750030647 99920.74359309244 8.421762850698956 0.21767941266758742
0.4977592398849451 13.172242990443623 84731.38803764587 8.846679256276259 0.22081305107240615
0.5162887586173035 13.136632734668838 72025.01708444355 9.289632529861674 0.22398036726336784
0.5351981646402924 13.10603302275441 61352.02622081397 9.751533628382688 0.22718467582000612
0.5544931748462689 13.079997124194866 52365.92464455768 10.233190842254984 0.2304273255970343
0.5741619648683767 13.05800267006352 44785.934743633195 10.735116498643814 0.23370554271769764
0.5942142040875253 13.039674261485379 38377.6870607973 11.25847243944672 0.23702448031687925
0.6146353984144145 13.02463453486211 32948.12865734858 11.804233672225724 0.24038625201996539
0.6354272885692609 13.012542791424654 28334.43359208167 12.373377530326342 0.24379248777698564
0.6565841573237925 13.003099122843643 24407.469640521427 12.966649180419003 0.2472417791316143
0.6781078677389185 12.996054530412943 21059.69098916753 13.585262109041617 0.25073765191183933
0.6999845096119236 12.991106941557446 18199.893429510154 14.230465526835033 0.2542833514694503
0.7222061361674572 12.988018251345945 15753.870296206587 14.903446939562938 0.25788085825488893
0.7447815528028304 12.986647664820675 13655.735249661793 15.60530911324582 0.26153081208220624
0.7676891583609888 12.986745162482794 11854.730114793922 16.33717034470258 0.26523364155683493
0.7909212250736274 12.988114478419785 10305.843209159333 17.100714118397224 0.26899474646687377
0.8144790755851155 12.99063966795741 8971.795263720122 17.897392603884352 0.2728165537258524
0.8383504102838397 12.994080837782786 7820.646034447025 18.72866269844506 0.2767009775650385
0.8625196674034001 12.998342616293812 6826.676669147871 19.595682831294397 0.28064684950556407
0.8869808155509418 13.003274681707678 5966.187720423348 20.500623601579075 0.2846613273074665
0.9117281539794937 13.008764792880166 5220.541382314334 21.445275303864992 0.28874741670464366
0.9367356255685304 13.014648445632275 4574.250589867988 22.43123844406225 0.29290598985286287
0.9620006684719902 13.020843015254115 4012.35545595005 23.46030102949523 0.29713895853108707
0.987511573518838 13.027239230233382 3523.4510217776324 24.534993440392494 0.3014533348102235
1.0132427044472954 13.033691463486667 3098.0082620281873 25.65739518003195 0.3058517862980202
1.0391906684581325 13.040145026418367 2726.9872993101944 26.82918652961631 0.31033351044884505
1.0653325443569872 13.046481592044431 2403.080663830503 28.053591793546644 0.3149082371561401
1.0916474912038312 13.05260239541729 2120.093086440691 29.332826317972 0.3195775343610972
1.1181329675161786 13.058439356747598 1872.5115226520059 30.669315950571438 0.3243438473156625
1.1447517057622767 13.063898198948399 1655.5370430265202 32.066715529431676 0.3292169966387035
1.171502129578007 13.06891900152014 1465.2569524557548 33.52683586671657 0.3341938440210153
1.1983519577068507 13.0734029559987 1298.2660668751314 35.054148018768316 0.3392875627712679
1.2252803586084218 13.077265548701666 1151.5631641205564 36.65096201539399 0.3444967137409572
1.2522643316462247 13.08044325996704 1022.4835356843151 38.32190800408862 0.34983320483202346
1.2792955519850657 13.082896946785649 908.7620928003863 40.06963189831783 0.3552960710833517
1.3063279656818363 13.084499116376053 808.5910839914612 41.899406462981354 0.36089871797418965
1.3333548554072419 13.085227648652793 720.2211131673633 43.81442963253089 0.36664154970561214
1.3603536899316115 13.085047772501643 642.2084771911135 45.81989598737001 0.3725351677319672
1.3872760195322045 13.083810099838738 573.1273540612348 47.920870843062296 0.37858808157442086
1.4141163864325623 13.081528419725855 512.0593578161237 50.12179155672632 0.38480435997262724
1.4408469469407559 13.078134582860107 457.9653916712263 52.428459471961816 0.3911940360872478
1.4674274653922075 13.073549211563867 410.01353843556285 54.84698014180927 0.3977672388442532
1.493830979771088 13.067712386972193 367.4368097703208 57.38352439497623 0.40453299733909404
1.520037521925714 13.060606643080822 329.6458350591472 60.04469946514599 0.41150104813355404
1.5460159759520975 13.052151433607724 296.02528162888444 62.837588260214496 0.41868189346280604
1.5717293953167637 13.042308336059355 266.1359709501418 65.76979238866622 0.42608686418805
1.5971453026485374 13.031015213411246 239.51512683603482 68.84947932411765 0.43372818805016217
1.6222378853765087 13.018235537386394 215.783327754615 72.08543413641813 0.44161906384781224
1.6469876201452194 13.003946127885962 194.59302328690376 75.48711627137479 0.44977374223879346
1.6713418384181402 12.988063470037655 175.6843450991277 79.06472192201568 0.4582076139470879
1.6952783638817457 12.970566392915288 158.78780257862485 82.82799600640656 0.46693214778635567
1.7187421575569195 12.95136951760175 143.65588130541377 86.78959298062527 0.47596868908300183
1.741758394576798 12.930541497200457 130.1267147055121 90.96171666983034 0.48533420332206006
1.7642386538626724 12.90793806575573 117.98760984394701 95.35740227142728 0.4950465176862788
1.786169022307171 12.883551295322118 107.10637833418834 99.99131048593466 0.5051271826576537
1.8075144953733546 12.857354460786397 97.3345278547437 104.87939508663844 0.5155997761803562
1.8282445934330693 12.829305971648138 88.56930781294082 110.03765146821425 0.5264849459366568
1.848326087242702 12.799384907909854 80.67742946428599 115.48448827975112 0.5378091484495299
1.8677241621533323 12.767548293079566 73.57521352466682 121.23977816856417 0.5496006060632908
1.8864086679503862 12.733773421109557 67.18416623258021 127.32475774350667 0.5618886156817072
1.9043473734335 12.69802513772064 61.41954402483798 133.76244540540412 0.5747047075726772
1.9214958844115486 12.660256305740306 56.222747342352086 140.57709906358684 0.5880803347474186
1.9378453713970358 12.620507462435913 51.52983620845795 147.79693936549657 0.6020559479848676
1.9533568562389017 12.578718982111601 47.288195812533836 155.45109778643734 0.6166697226886871
1.9679960666285894 12.534868060432803 43.45375821607307 163.5717719152118 0.6319645567485918
1.9817371002358675 12.488957609463663 39.983555387751835 172.19360333272314 0.6479852791924147
1.994547662321066 12.440964796912962 36.83991865201208 181.35546872738257 0.6647839798896106
2.0064090462501483 12.39088096215643 33.9945219600902 191.0990194335531 0.6824142691353586
2.0172966173261253 12.338732317865988 31.411054007917294 201.47008364392406 0.7009351109608396
2.0271536101692127 12.284413125306832 29.06787717501444 212.51913000428019 0.7204113355296775
2.0359856949252957 12.228014575014601 26.9375550476512 224.30005818675093 0.7409085688271675
2.0437767443964203 12.169554672870055 25.003572785677342 236.87512528458785 0.762508094783946
2.0504798380558076 12.108965335607566 23.2459277869134 250.30926087709153 0.7852868280614617
2.0560764223258907 12.046273963539146 21.64581350769109 264.676864372064 0.8093378808879768
2.060568334417711 11.981545603404603 20.19116753811148 280.0588796118139 0.8347591655370339
2.0639204677079497 11.914767176522469 18.865991163837688 296.54460582807303 0.861657175594215
2.0661162355494023 11.84595245862776 17.659898645586537 314.2328437211235 0.8901482847310374
2.067152231871406 11.775166670660864 16.561471339579487 333.2341874134834 0.9203634635987556
