M[M_sun], R[km], Lambda[1], P_c[MeV/fm^3], rho_c[fm^-3]
0.24162668629717493 15.618656898711224 2160425.4255784233 3.5677272577965504 0.1711233750220791
0.2536449358562064 15.277272145930134 1723234.666275148 3.7848380548606446 0.17388840300923544
0.26604148263531824 14.981256986283588 1382991.7269607424 4.0114402696438045 0.17666712981790572
0.278817498503142 14.723499433063626 1116381.318886515 4.24778942101514 0.17945822412063886
0.2919735624217435 14.498365995938903 905866.3712225441 4.494510932745354 0.18226825651223474
0.30551035406034277 14.301164707970148 738607.5385293341 4.751761131449047 0.18509294738059381
0.31942875241756813 14.128032134464087 605032.8502097839 5.02022116978198 0.1879388905702057
0.33372543968648044 13.975901905325765 497658.291749316 5.300116621331026 0.1908027387322253
0.3484098333641164 13.84195060206383 410957.9410385518 5.592174420142163 0.19369075431946575
0.3634740465870775 13.723905329325191 340611.6838521721 5.896563990801673 0.19659803983913984
0.3789277020673336 13.6199552488654 283261.0291061834 6.214148573451738 0.19953225818186043
0.3947630903117572 13.528394391998852 236368.01570317152 6.545183481826597 0.20248955011939224
0.4109891514076699 13.447801255465512 197837.5456460652 6.890375381015457 0.20547369869640475
0.4275986856738039 13.376993531202102 166056.64376148465 7.250427598814358 0.20848774411592708
0.44459553895574366 13.314866615956818 139773.91553434683 7.625596207952845 0.21152718628482067
0.46197875505251884 13.260537185516295 117959.71506087069 8.016836068923546 0.21459827710333404
0.4797450545621081 13.213104726078651 99789.9352317281 8.424849687336662 0.2177026213637845
0.49790487942268896 13.171926524787581 84625.47565025407 8.850074129682767 0.22083763140638707
0.5164447951325442 13.136349526353245 71925.36682255824 9.293390369754784 0.22400682269048935
0.5353646751378145 13.105805978037013 61263.7298531788 9.755679906632734 0.2272130634356589
0.5546727141174911 13.079773645688308 52292.36389043527 10.237752045927952 0.23045769813495862
0.5743578993244489 13.057806931456048 44718.78590181589 10.74007387049517 0.23373737058058497
0.5944169761977766 13.039493882471389 38319.751633790234 11.263899984581164 0.23705839171709775
0.6148558802413759 13.024490083709164 32893.39684938375 11.81016344461416 0.24042231492969385
0.6356624600983594 13.012429125005974 28284.829037742507 12.37984358330634 0.24383077375648055
0.656834791437628 13.003006388899678 24364.304787275065 12.973621821471403 0.24728163188860378
0.6783678015543321 12.995984932897555 21021.28883869317 13.592840330764654 0.2507798454200661
0.7002587976309396 12.991058106042667 18167.14308260941 14.238689950269434 0.2543279693679751
0.7224950029315229 12.987996755485643 15724.586498801558 14.912360795221378 0.25792798916985843
0.7450847911059852 12.98664206240796 13629.518960751324 15.614871453598404 0.2615796884231376
0.7680083087303442 12.986750580370028 11832.708756606451 16.347510634891552 0.26528518530999257
0.791257191220199 12.988143794472686 10286.893421745646 17.111884238314065 0.26904906297750936
0.814833029222944 12.990674764835681 8953.486054941704 17.909447872332688 0.2728737551126467
0.8387175321740746 12.994134451881887 7755.52566161199 18.741549651819177 0.2767601864479038
0.8629014026273867 12.998413701333893 6811.964380488492 19.609568990755648 0.2807091479455242
0.8873839567701098 13.003366055477462 5953.288796570123 20.515575779808024 0.28472685007083764
0.9121427110416566 13.008858463562472 5209.32636511883 21.46136488782865 0.2888163076438419
0.93716506505758 13.014747470493297 4537.375572090268 22.448398420874206 0.29297726262713053
0.9624504492535987 13.020961923084977 4003.009344330163 23.478746688206225 0.29721387183185166
0.9879727804002539 13.027352916475108 3515.229669426873 24.554811574606784 0.30153206284934686
1.0137177751224762 13.03380361507793 3090.716464516998 25.678509090397185 0.3059332689444292
1.0396849547601843 13.040265275067785 2720.3587651731955 26.851854266109683 0.31041914507554796
1.0658383144832193 13.046591103378432 2397.2207814208305 28.07791942725936 0.3149982356517093
1.092172288878128 13.052727451381797 2114.842339999682 29.358727645337705 0.3196707632361177
1.118672236497173 13.058555479821447 1867.5922195418675 30.697100115762026 0.32444185775874135
1.1453057364765578 13.064013878416143 1651.4068269339466 32.0963707271666 0.3293191281675864
1.1720712950674594 13.069016542367661 1461.4279634488212 33.55855120485796 0.33430072798054
1.1989298507051684 13.073481851205543 1294.879961194464 35.0881519892113 0.3394000046830256
1.2258772073834963 13.077347001967503 1148.5815160813106 36.68715596571058 0.34461346982197544
1.2528751207600435 13.080498346714297 1019.7215403576773 38.360655909651705 0.3499558085374856
1.2799193785989804 13.082942167872497 906.330075333197 40.110937279824974 0.3554238561344984
1.306965511142265 13.084526515087896 806.4345193114222 41.94338768454121 0.36103167987009094
1.334004356795068 13.085236253338458 718.3037400667234 43.86157962623436 0.36678170387107994
1.361013316385172 13.085032556259192 640.334516215181 45.87011598684318 0.3726812006685639
1.3879463341187959 13.083770755814822 571.5453448598556 47.97437527879385 0.37874037247012055
1.41479734273382 13.081457873327297 510.5857891240099 50.17916690788148 0.38496513202945837
1.4415292753792472 13.078016428963704 456.6810740722853 52.48961468531352 0.3913619453902332
1.468124764802536 13.073413660135104 408.82460507655225 54.91218590822429 0.3979427610404411
1.494535271582843 13.067541519606111 366.3613009121737 57.45307332683639 0.40471664483729713
1.5207475446616119 13.060390897851336 328.6994714986133 60.11890805856248 0.4116933731224229
1.5467337823154665 13.05189586530923 295.15579068576807 62.9167990529883 0.41888349122795265
1.5724484767413882 13.042011386766056 265.3415625224173 65.85437633578411 0.4262983767602879
1.5978630002217713 13.030670226835943 238.8061642920385 68.9398384152324 0.4339503082207231
1.6229603711769516 13.01785042997893 215.1351845630166 72.18200428275756 0.44185253959064946
1.647712270655026 13.00350397415645 194.00238178028246 75.59037049293327 0.45001938158493
1.6720613551127776 12.987560810441678 175.14612130427204 79.17479229301098 0.4584646969916342
1.6959980477998868 12.96999987432903 158.2896532623071 82.94563978119359 0.467202492838182
1.7194783223856893 12.95078273236209 143.21102060085792 86.91557283163927 0.47625397146228254
1.7424596254625841 12.929828118162874 129.72535361069563 91.0960850450167 0.4856331234976287
1.7649417541453292 12.907175021770009 117.61719374600357 95.50145301039126 0.4953625971725327
1.786867684634847 12.882735850373892 106.76798805780433 100.14516899990615 0.5054592026558414
1.808205248268113 12.856466127320939 97.0398301973005 105.04385887762521 0.5159490153852463
1.8289176573783434 12.828332210491968 88.28759899261631 110.21407392639348 0.5268545874597538
1.8489905656723886 12.798342410957384 80.42288328377471 115.67357034672892 0.5381997267527009
1.868364218660123 12.76639603326663 73.3469018255143 121.44234728286146 0.5500129625467012
1.88703974517521 12.732566634094411 66.97256123430819 127.54184565934013 0.5623241449827387
1.9049615472789239 12.696737448640778 61.225332239442196 133.99470815777593 0.5751632663628037
1.92210121664888 12.658908177358562 56.04689392599681 140.82656261641498 0.5885663846145224
1.9384125650503978 12.619007767033036 51.36633010821285 148.06509690474084 0.6025717623532735
1.9539060414671627 12.577151095455404 47.1416554893323 155.73870659285745 0.6172147701669006
1.9685191428905633 12.533212148726307 43.32088817358914 163.88117550971617 0.6325434379725834
1.982229697163945 12.487199361909985 39.8605558113562 172.52644061690495 0.6485998268459805
1.9950144758389172 12.439103955886724 36.72740937248428 181.71354720642103 0.6654362248042184
2.0068475602462135 12.388934378251937 33.885879685242 191.4846632487706 0.6831075456470771
2.01769081748881 12.33664667717144 31.313470188516106 201.88585651964755 0.7016730668026365
2.0275227355816097 12.282252453638893 28.977763699879354 212.96695425662327 0.7211949895840611
2.036328186704153 12.22576830993811 26.857230549579743 224.7837972398572 0.7417447232966552
2.044066894126213 12.167161573587732 24.930180635928696 237.3972736883944 0.7633984057778056
2.0507216850484524 12.10643954918237 23.17667277432561 250.87446045149323 0.786239216331939
2.0562896493741856 12.04367715085365 21.584164599189272 265.28868276348766 0.8103559295929138
2.0607304106442466 11.97881338711965 20.133494562911675 280.7212646495403 0.8358467456925435
2.0640299289789374 11.911903958783032 18.81339084144213 297.26248459399204 0.8628202678253214
2.0661864663026193 11.842987135045771 17.611417384233974 315.0126629428335 0.8913966219263588
2.0671706292894507 11.772083338203926 16.516558950138524 334.0810876377489 0.9217010748530704
