M[M_sun], R[km], Lambda[1], P_c[MeV/fm^3], rho_c[fm^-3]
0.24162668629717493 15.618656898711224 2160425.4255784233 3.5677272577965504 0.1711233750220791
0.253641300556537 15.277381277468063 1723243.1133803912 3.7847872413476025 0.17388776964330863
0.2660357253528378 14.981355474390261 1383025.073007401 4.011333449658333 0.17666583896142216
0.2788090567525167 14.723651992795084 1116517.3277753417 4.2476229808358905 0.17945629366537955
0.29196361603755555 14.498458123002798 905938.5227601968 4.494280505026424 0.18226569064610498
0.3054943909945485 14.301379337501398 738797.6647375615 4.751458892304577 0.18508968262100148
0.31940818717822306 14.128299074011418 605233.7584754415 5.019844893028953 0.18793498655366359
0.3337045009947587 13.976117103729264 497801.6366159513 5.29965640088692 0.19079810507599695
0.3483829403270825 13.842170976593007 411098.2667663692 5.591629107144189 0.19368547826619992
0.36344281212074325 13.724131316463586 340736.5497269107 5.895921334352626 0.1965920038737698
0.3788937205862487 13.620130692848479 283377.949725916 6.2134007968128575 0.1995254393592955
0.39472142495199625 13.528607736061778 236470.3469886948 6.544331361574171 0.20248207817593653
0.4109438568342913 13.44803254490654 197932.97306444746 6.8894024674687575 0.20546541295637374
0.4275477316920251 13.377210282972273 166142.69814435617 7.249324762676757 0.2084786206351934
0.44454116072711347 13.315039344112378 138229.19871235595 7.624366497525606 0.21151739699911865
0.46191811118973036 13.26068323661052 118032.6955904016 8.015458035740393 0.2145876169025704
0.4796806683995103 13.21324778959873 99851.90720758165 8.423312586206048 0.21769106451211026
0.4978320111504729 13.172092994168302 84680.68655311357 8.848383628278299 0.22082539145392305
0.5163663798056848 13.136498382534446 71969.531831667 9.29151911133279 0.22399364891453916
0.5352812730481469 13.105943656487431 61304.63424776267 9.753615204190053 0.2271989273898256
0.5545832486870269 13.079906366530265 52325.76842556683 10.235480973832615 0.2304425769799581
0.574260910493135 13.057910304526366 44752.03599405937 10.737605234414458 0.23372152117225903
0.5943148767043757 13.039581342640107 38348.932538406116 11.26119719329138 0.23704150462820867
0.6147467410864641 13.024549691583797 32919.41931436835 11.807210532118614 0.2404043562948952
0.6355438107674061 13.012467444178071 28310.043297791686 12.376623587564499 0.24381170792275986
0.6567107888742577 13.003056168110989 24384.989461660934 12.970149529160317 0.24726178568963408
0.6782388225260946 12.996001531042173 21040.53380411246 13.589066436340836 0.2507588333870011
0.7001222750920588 12.991083634578736 18183.795267545152 14.234594219769065 0.2543057498301184
0.7223509536373008 12.988009363113589 15738.773998643168 14.907921694653751 0.25790451797182573
0.7449346441858454 12.986657580109114 13643.040081910696 15.61010937608112 0.2615553478416801
0.7678496426529959 12.986758546291684 11843.568080105992 16.342361094524215 0.26525951614281074
0.7910885194921781 12.988124283711885 10295.54292670195 17.1063213919845 0.2690220127395465
0.8146584321716382 12.990653118167682 8962.466926165525 17.903444163618886 0.2728452679440855
0.8385359363038196 12.994114989195104 7812.667392513468 18.73513170897727 0.27673069932127803
0.8627107994546076 12.99838295909485 6819.554972884696 19.602653368652064 0.2806781219106001
0.8871816158165196 13.00332908224832 5960.393145081964 20.508129195561445 0.284694217984058
0.9119367064521033 13.008809093838515 5215.076732343895 21.453351779502697 0.28878199783448205
0.9369503687171385 13.014707210191617 4568.660466825373 22.439852167166652 0.29294176635472835
0.9622233113671362 13.020904088593843 4007.4721974057647 23.46956004504494 0.29717656214435606
0.987743504418133 13.027302440652894 3519.2669560004015 24.544941303877653 0.30149285294937755
1.013480000044524 13.033754975176043 3094.4135466110315 25.667993397247326 0.3058926868593557
1.0394387903899789 13.04020113333603 2723.6998848843546 26.840564600998274 0.31037649475368195
1.0655880754322928 13.046535105821967 2387.9083072262165 28.06580294697899 0.3149534115225028
1.0919104235490722 13.05266598500545 2117.4605844248563 29.34582729109493 0.3196243298817016
1.1184043989993395 13.05849824898138 1870.174978753403 30.68326187946053 0.3243930424834925
1.1450302692654375 13.063957901936654 1653.43588549963 32.08163977191809 0.32926851405629326
1.1717877908805603 13.0689752859173 1463.4169506617409 33.5427547490972 0.33424749229594347
1.198637963487492 13.073435751619611 1296.5293247496625 35.07121548243252 0.3393440002466056
1.2255805040971868 13.077304126164675 1150.073216719943 36.66912855388191 0.3445553161819995
1.2525706213545276 13.08047670321768 1021.1106985954866 38.34138251116013 0.34989489580118954
1.2796089012675267 13.082920353042168 907.5595110178491 40.090363631748616 0.3553602081405619
1.306647651654568 13.084515207252014 807.5290686332439 41.92148106892772 0.3609654528522537
1.333680981320068 13.085233604662125 719.2275698293014 43.83809445138085 0.3667118937857773
1.3606848377678615 13.085042850718088 641.2465374725001 45.84510145905654 0.3726084618197271
1.3876118973113414 13.08379206766071 572.3462312181055 47.94772456145788 0.3786645159255436
1.414464523789149 13.081510150180165 511.3140419709761 50.15058778991553 0.3848850501914339
1.4411935418835915 13.07808820931236 457.3127111389804 52.459152532293864 0.3912783077312237
1.4677773565189567 13.073482356086355 409.41456072426536 54.87970584744415 0.39785533055823247
1.494183404528672 13.06762808326384 366.8935481910435 57.418429561230354 0.4046251662090606
1.5203941063583057 13.060496365074302 329.1733197851117 60.081942888669 0.411597571200287
1.5453191295879645 13.051603241745717 296.7315084276256 62.928875160435105 0.5137985075964816
1.5663202532932818 13.037956246416229 270.8581357553769 66.06387234841142 0.6345354493703969
1.5840045205547462 13.01840157651521 249.49819841311097 69.50322345161938 0.7521197401920671
1.5987875455529168 12.992633485268696 231.40150001867548 73.2569274958715 0.8673304133937313
1.6111273530517505 12.96083602013744 215.71253044292098 77.33855683310213 0.9802701244458226
1.6213876915793053 12.923221841845358 201.8385422890304 81.76162993701799 1.0916349003576729
1.6297570445818839 12.879814056612037 189.42174931544275 86.54182658064366 1.2019231416410718
1.6365983658557994 12.83122074442971 178.11211003021714 91.69646341855588 1.3116862013368344
1.6420779072161695 12.77762993020761 167.72280094926765 97.24495430629594 1.4215423353147698
1.646344857917501 12.719213854702282 158.08629429802164 103.20776831819904 1.5320270039316262
1.649604237509223 12.656467167351803 149.05851592508296 109.60970541097642 1.6438020445692156
1.6519420506401252 12.589505400551987 140.5936110996318 116.47531875768446 1.7572763947694443
1.6534547824879702 12.51862943278991 132.60742942027812 123.83617059055364 1.8765497947659753
1.654243341319672 12.444227961846744 125.06583551155296 131.7282265762673 2.0042220716704886
1.6543296788810928 12.366497254920773 117.95870397624833 140.1938359314319 2.1449080264787863
