M[M_sun], R[km], Lambda[1], P_c[MeV/fm^3], rho_c[fm^-3]
0.24162668629717493 15.618656898711224 2160425.4255784233 3.5677272577965504 0.1711233750220791
0.2536176854003658 15.277978348019662 1724010.9075158706 3.7843503417140734 0.17388232390014405
0.2659862633474737 14.98243619245971 1384317.6935439606 4.0104150847692575 0.17665474106371956
0.27873334511316944 14.725004131276659 1117932.2324027484 4.24619216880112 0.17943969840196397
0.29185436195753967 14.50019555698086 907489.0478083292 4.492299791078492 0.18224363493659504
0.30535870096422685 14.303208622166068 740220.5398387956 4.7488611273225825 0.18506162180128694
0.3192425744257846 14.130180600710954 606544.2245390693 5.016611036799685 0.18790143404713108
0.33350344146279676 13.97808336100419 499119.8549476475 5.295701439108131 0.19075828517335292
0.3481474675035726 13.844172666769518 412347.24871524464 5.586936045648047 0.1936400061330605
0.3631713527061797 13.726118567045253 341893.9358718412 5.890399482812188 0.19654014147555363
0.37858316683831994 13.62209214272136 284404.696774938 6.206976258419621 0.199466855304797
0.39437678401792076 13.53045710817043 237389.3036800103 6.537010904319672 0.20241788765526791
0.4105550068604321 13.44979833795532 198761.31547914422 6.881044966069704 0.20539423696737005
0.42711622110592945 13.378911799469583 166880.2426615601 7.239851964299865 0.2084002546018916
0.44406472541509207 13.316668139724756 140511.76052715373 7.613804673872408 0.21143331809160887
0.46139732867717 13.262201179052669 118616.74765562342 8.003623222554747 0.2144960650545439
0.4791121067276208 13.214662040968745 100380.36003911043 8.410112705484224 0.21759181986217693
0.4972162761610114 13.173377576871198 85146.84740664964 8.83386742372476 0.22072028793065843
0.515698608992175 13.137658850029684 72385.59824905089 9.275452007464294 0.22388053550163778
0.5345667283450718 13.106991016748339 61674.88840545516 9.735888512075595 0.22707756107232513
0.5538138858507456 13.080831186430155 52650.88805737845 10.215979411243804 0.23031270418070085
0.5734361300558924 13.058729356807333 45041.78911629787 10.716413572230284 0.23358546413668127
0.5934469226534325 13.040297055772614 38603.2870692734 11.128266948881405 0.2361967862660425
0.6136581455879575 13.025137487800357 33179.78802065286 11.78298176235236 0.25228599773497823
0.6339342256264441 13.012422393754905 28621.54331057069 12.35502543379374 0.2642772789048337
0.6543788804925349 13.001641620506733 24750.45613575183 12.954091978667766 0.2759511717148213
0.6750346181181659 12.992601550187604 21446.991158773526 13.581312781169162 0.2873243150537125
0.6959172127718246 12.985001949434878 18617.098832223848 14.235113105425214 0.29825150727605076
0.7170603813594737 12.978689727708074 16186.55389802432 14.91913048923541 0.30891353568254465
0.7384816180572354 12.973497400469448 14091.58296377252 15.634847242380516 0.3193363753262184
0.760206482950123 12.969355690056851 12280.780313943003 16.38204395845029 0.329463491081846
0.7822265487803821 12.966146815693598 10715.675907248551 17.161420522402956 0.3392920758188633
0.8045547977832552 12.963672614774449 9360.005000728437 17.977072104187364 0.34895584923019374
0.8272160458793708 12.96202097523898 8182.466132043853 18.826142004738948 0.35830692695078525
0.8502053576850562 12.961069088649811 7159.982896086986 19.7145153560646 0.3675244701590327
0.8735249036377529 12.960769570988884 6269.581714842195 20.639683877226613 0.3764897544728645
0.8971585836662548 12.960939821386935 5495.586736221092 21.607223956147532 0.38534203746681855
0.9211099714207931 12.96158841615535 4820.736633827055 22.61512138288632 0.3939895241118181
0.9453989753760766 12.962788965641412 4231.7389429821405 23.667584487258736 0.4025165847892399
0.9699699516134985 12.964177990743362 3717.9182142802056 24.766750507793517 0.4109401337703824
0.9948328390417616 12.965829619445392 3269.2420268004817 25.91356118404761 0.41924983696638063
1.0199921958209623 12.967745301977995 2876.9930999429284 27.10977811536551 0.4274558672287886
1.04541909361163 12.969841375731542 2534.3084972221513 28.35887465400117 0.4355982104796753
1.0710888427823422 12.971919435283759 2234.130256544192 29.663158645485787 0.4436889969626867
1.0969906769985087 12.974000081344812 1971.3506359836722 31.025190227646693 0.45174295902996364
1.1231098106538233 12.976001202884413 1740.8293159222553 32.44778935893944 0.4597767463350489
1.149414322623631 12.977777111374204 1538.7942272611565 33.93404571318254 0.4678084684694584
1.1758845764194543 12.979363110580904 1361.6074334834893 35.486967525503104 0.4758526904955302
1.2024963769189587 12.980578294995608 1205.8595549663517 37.108795074328285 0.48391298050792547
1.229243828711873 12.981408550198626 1068.8755951851315 38.80482344330817 0.4920291929851618
1.2560688952433023 12.9817915463528 948.4826769516243 40.5790068051672 0.5002200135598425
1.2829505600353293 12.981522174860073 842.5293481575931 42.433114192564396 0.508479759419575
1.3098832004421943 12.980720850066414 749.1676114602552 44.37439852395623 0.5168590762818053
1.3368003653431169 12.97910397756796 666.7825496603016 46.40487788010705 0.5253530336060097
1.363706993840487 12.976766172000444 594.167364968099 48.53096954810799 0.5339982448854094
1.3905523327054732 12.973561432396055 529.9817992013926 50.757914368556335 0.542817254041251
1.4172947447328341 12.96933475901461 473.2377335888885 53.09092352388961 0.5518312834198589
1.4439141130182012 12.964135948535993 423.05355325725424 55.53575973323119 0.561065110056182
1.4703790852655063 12.957862671414924 378.5698770218101 58.09875928504718 0.5705467527617216
1.4966580884292697 12.950424046040766 339.1763188477326 60.786861123037205 0.580307318507509
1.5227201972059055 12.941808016327746 304.2044296258616 63.607642779458686 0.5903809686315105
1.548510103432316 12.931881895379535 273.1465053120361 66.56936314358096 0.6008049781216716
1.5740041347435159 12.920617885099201 245.54450612629975 69.67871726983877 0.6116079091830948
1.599146552604481 12.90788442411319 221.01223350732192 72.94688877181471 0.6228426293054777
1.6239504340295003 12.893740449319361 199.13822887789246 76.38115583220375 0.6345421025048901
1.6483289125861225 12.878025184105045 179.67209043990064 79.99354527352793 0.6467633174284397
1.6722728278743277 12.86073578242156 162.2695869125425 83.79484153254609 0.6595577316846221
1.69573001046199 12.841760490647584 146.74906906033107 87.79693946536406 0.6729831903290784
1.718694135421166 12.821163056129773 132.86356401301822 92.01291706155322 0.6871040546965406
1.7410916778005483 12.798778443197602 120.44368146804123 96.45668039010943 0.7019901245958544
1.7629042453800627 12.774605550006278 109.31991261441716 101.14264281795654 0.7177163933271757
1.7840927854131035 12.748575158467734 99.36002510410451 106.08818296325555 0.7343705753044744
1.8046199765835582 12.720664999851422 90.41458003766823 111.3106423286505 0.7520445553273379
1.8244383554386088 12.690803031231615 82.39042145899137 116.82877370927466 0.7708398533033542
1.843543545953567 12.658979869800744 75.16121388272252 122.66332349623754 0.7908694393358885
1.8618585740558828 12.625149637847539 68.67390635531085 128.8371914242 0.8122583948719857
1.879383515506567 12.58927796838123 62.8312163062427 135.37562884948275 0.8351447872414959
1.8960593444189342 12.551316461853489 57.55854331777122 142.30422551315942 0.859678668925777
1.9118507513872802 12.511227103033104 52.80982472746504 149.65329178172087 0.8860287314765496
1.9267435240423887 12.469011080572614 48.519413523842495 157.45467300279915 0.9143798986080522
1.940671653725126 12.424586467675882 44.64416537299693 165.7437390257321 0.9449370992443641
1.9536369807481433 12.378041954388987 41.14316225167123 174.55833034550116 0.9779271491928296
1.9655768669407043 12.329241993906562 37.977956370836544 183.94180056962782 1.013601342519981
1.9764689682032586 12.278214577337872 35.11273511336904 193.9403978367018 1.0522382510626604
1.9862806477776684 12.224939156000241 32.51583231284634 204.60576803561352 1.0941468082242454
1.9949778991530458 12.169418908545813 30.161940337352682 215.99531829615515 1.1396693869758927
2.0025283211549727 12.111622181915104 28.03195141773967 228.1716300898961 1.1891873208201806
2.00891211882907 12.05159109217703 26.099023270099504 241.2050648373827 1.243123388507887
2.0140927417022545 11.989304272773962 24.3434442316347 255.17315377173622 1.3019488902504284
2.018049794763284 11.924769242232808 22.752276328543665 270.1632282385063 1.3661863998615904
2.020757068522086 11.858012267873928 21.307487480605232 286.27161706169926 1.4364203771259956
2.0221871412795998 11.789067100629875 19.998185893829383 303.6067224929356 1.5133008036277815
2.022327170345912 11.71794992831299 18.810383916856395 322.2894793602368 1.5975543526429783
