M[M_sun], R[km], Lambda[1], P_c[MeV/fm^3], rho_c[fm^-3]
0.24162668629717493 15.618656898711224 2160425.4255784233 3.5677272577965504 0.1711233750220791
0.253641992447398 15.277345335386602 1723144.3787908135 3.7848042118374448 0.1738879811722777
0.2660380588565574 14.98128165893597 1383145.9305107922 4.011369124735114 0.17666627007367106
0.27881169908144626 14.723591455187773 1116451.2772489644 4.247678567154925 0.17945693838291357
0.29196513725141016 14.498496535465776 905926.8778189381 4.494357460916932 0.18226654756780633
0.3054994454801682 14.301316017206066 738735.0450264043 4.7515598304285795 0.185090772945384
0.31941539862566226 14.12820488023953 605147.8759342504 5.019970556606284 0.18793629036178008
0.3337118398124244 13.976080383818589 497754.31364302983 5.299810097881228 0.19079965254970022
0.34839197250078696 13.842096784112403 411055.3154296805 5.591811220973572 0.19368724026759698
0.3634536139178446 13.72404444606707 340690.959204642 5.896135955959366 0.19659401964531908
0.37890504340507963 13.620067976054253 283341.5047286585 6.21365052293802 0.19952771656086718
0.3947355582663702 13.528533904665348 236437.98753845852 6.544615932614451 0.20248457347952314
0.41095922349768604 13.447938123335803 197900.84674805842 6.889727376382971 0.2054681800170299
0.4275646660154045 13.377154941279604 166109.13140471914 7.249693057777514 0.20848166744617602
0.44455863190639233 13.314987389304886 139830.85388987875 7.624777160585735 0.21152066614113274
0.4619386424327947 13.260622274919086 118002.22026850613 8.015918228811723 0.21459117686802723
0.4797016532802625 13.213203412607667 99828.178264344 8.423825897086171 0.21769492389233333
0.4978561544511602 13.172067118784632 84659.55446823905 8.848948164066503 0.2208294789342372
0.5163919907397677 13.136450797847806 71952.64080888116 9.292144006793466 0.22399804821754
0.5353096237698092 13.105898016596557 61293.22072995556 9.75430469540945 0.22720364801168258
0.5546129134333623 13.079868687699797 52313.588101624526 10.236239554260742 0.23044762882968622
0.5742938357226182 13.057892517778201 44741.997361567235 10.738429607899791 0.23372681390539382
0.5943488282358794 13.039550905435188 38336.722763612575 11.262099755503847 0.23704714385324518
0.6147830919019822 13.024534034401396 32911.13188720327 11.808196613843759 0.24041035331702512
0.6355830935022075 13.012460654908434 28302.91712254264 12.377698852114355 0.2438180746439474
0.6567530706181889 13.003053952955076 24378.697579314696 12.971309038823852 0.24726841297139154
0.6782829269844568 12.996000086486859 21033.760020346155 13.590326653964102 0.25076584994109496
0.7001683285220061 12.991062777921623 18041.698016536375 14.235961900980543 0.2543131695674403
0.7224000916458404 12.988008294757396 15734.78352084643 14.909404029083055 0.2579123556327237
0.7449848483548807 12.98665520869556 13638.543458514738 15.611699554195452 0.26156347577739375
0.7679022849032504 12.986752692092367 11839.753931532316 16.344080647187365 0.26526808768155785
0.7911432807926392 12.988133536694102 10293.261992892547 17.1081789473752 0.2690310454023905
0.8147165152472031 12.990659651596596 8959.276601171263 17.905448921874505 0.27285478037866134
0.8385960506032992 12.99411934427981 7809.9320487283785 18.7372747789558 0.2767405456189752
0.8627748188765753 12.998381933233706 6817.225197463536 19.60496261059413 0.2806884820228314
0.8872453382948697 13.00334674269158 5957.267743697773 20.51061572126881 0.28470511432524953
0.9120046591212183 13.008837648527326 5213.210153222042 21.456027461580618 0.288793454330297
0.9370227289468167 13.014724544217474 4566.977448868448 22.442705860959727 0.29295361897409794
0.9622994473151532 13.020909301487311 4006.298056373932 23.47262755557287 0.29718902021605614
0.9878197427206383 13.027316951511878 3517.9751630497567 24.548237066216544 0.3015059454485781
1.0135603652261207 13.033774273225175 3093.4505939520946 25.671504655632372 0.3059062374816938
1.0395203046800083 13.040222400816594 2722.574828610606 26.844334272592285 0.31039073589416105
1.0656694890194087 13.046551574950332 2399.2803610171654 28.069848673173286 0.3149683784229121
1.0919963316406596 13.052688217857996 2116.5555394344315 29.350134735281127 0.31963983403598767
1.1184944078951835 13.058514170894954 1869.3975888024656 30.68788245708289 0.3244093418704613
1.1451222020600391 13.063980912968638 1652.7823072989518 32.08655840483462 0.3292854139945286
1.1718830660218185 13.068991080731431 1462.814630952095 33.54802911932031 0.3342652674674057
1.1987363711829913 13.073446408636668 1296.0241107732536 35.07687047733394 0.339362699781672
1.2256790087482345 13.077322605966408 1149.6060762189156 36.675147766070936 0.3445747332287673
1.2526722532194896 13.080484500499141 1020.6356013471302 38.34783517833196 0.34991533643622463
1.2797110716109148 13.082932677509607 907.1004542042512 40.0972329363127 0.3553814594739968
1.3067535385819742 13.084522281109438 807.1249525365075 41.92879539894556 0.36098756518001374
1.333788014724562 13.085228584984035 718.8843761831677 43.84593579188477 0.3667352023049976
1.3607957920784952 13.085034069864351 640.9439739124837 45.85345338329995 0.3726327480809038
1.3877243576416711 13.0837856061138 572.0841192351692 47.95662273396036 0.37868984299687825
1.4145791184841463 13.081496410917481 511.0822000155782 50.160129755897735 0.3849117878316624
1.441300605115233 13.078051380590592 457.0922685840566 52.46932314762399 0.3913062324303199
1.467893178802555 13.073462261288315 409.213448702863 54.890550134576294 0.3978845214288897
1.4943014883420915 13.067600134991942 366.7163540566973 57.42999618891103 0.4046557084787891
1.5205117610218315 13.06046239510896 329.0038834826358 60.09428449834151 0.4116295567134683
1.5464942372325519 13.051983119972666 295.43770945183314 62.890515366098654 0.4188165971551727
1.5722099309260882 13.042111829505373 265.6009602918085 65.82630938258049 0.4262281918886987
1.5976320805941575 13.03079355157901 239.0402057653933 68.90985475149469 0.433876602560105
1.622714216191223 13.017952233253414 215.34896739762996 72.14995920088303 0.44177506482667184
1.6474718309277088 13.00365127034032 194.2034933938616 75.55610696337297 0.44993786946009395
1.671821556320332 12.987727844635446 175.32956162355484 79.13831870967321 0.4583796045389921
1.6957591672617907 12.970189544879828 158.44905773292345 82.90660028132464 0.46711278018118463
1.719224026237102 12.950954603748906 143.36039608440666 86.87376644716561 0.4761593005705822
1.7422272354495196 12.930064749627302 129.8470812076049 91.05149437445975 0.4855339256688753
1.76470772990985 12.90742681030957 117.7411081485424 95.45364848882883 0.4952577033779938
1.786636373920739 12.883004427473304 106.8789282171676 100.09410900236452 0.505349017396322
1.8079761328824155 12.85675998763311 97.13550846457204 104.98927862830762 0.5158331141114156
1.8286888147841953 12.828641120666141 88.37988799557934 110.15566566334431 0.5267324404010166
1.8487703477594624 12.798689336514501 80.50594818112313 115.61081814261708 0.5380701023531267
1.8681588627886168 12.76679915800654 73.42068492171344 121.37511800746127 0.5498761083787673
1.8868327435243213 12.732964814291725 67.04473589903108 127.46986688842453 0.5621798485777112
1.9047585739965145 12.697164515058326 61.290570455267044 133.91762177425755 0.5750110739066288
1.9219045593033588 12.65936718251206 56.10403804037142 140.74376602861454 0.5884050653755362
1.9382229626510192 12.619495174286468 51.42074146135387 147.97609428022034 0.6024005613768516
1.95372547619503 12.57767621806582 47.191106012950726 155.64324649679818 0.617033863729178
1.9683447514993289 12.533762444565035 43.361774877033184 163.778679449996 0.6323519744812245
1.9820679115257567 12.487785646665522 39.89996960858027 172.41596484447356 0.6483958454113571
1.9948617957465493 12.43972584715373 36.7648451136097 181.5946912330666 0.665219727000722
2.0066972913646404 12.389571954308744 33.921078392366546 191.3566552303364 0.6828774240971126
2.0175573622503817 12.337333740236264 31.342982211363545 201.74784502140804 0.7014281100069731
2.0274003973498713 12.282968792756927 29.00651568495657 212.81834706178637 0.72093501018758
2.036218964434829 12.226523886605923 26.883514270300797 224.6232188386422 0.7414671597073255
2.043971101798668 12.167952318408046 24.95437451102799 237.2239417735298 0.7631028589404205
2.0506390413361095 12.107271052114509 23.199837406482445 250.687007775792 0.7859236239471766
2.056214200706498 12.044525436433396 21.604408831459857 265.085597280113 0.8100180361938517
2.0606772003132368 11.979720045102917 20.15258885613763 280.501593297595 0.8354864335472938
2.063613057505387 11.914564013132237 18.880455531073686 297.32298513715455 1.167532753983128
