M[M_sun], R[km], Lambda[1], P_c[MeV/fm^3], rho_c[fm^-3]
0.24162668629717493 15.618656898711224 2160425.4255784233 3.5677272577965504 0.1711233750220791
0.2536449204635202 15.277266287597747 1723148.4609341964 3.7848509683234344 0.17388856396931945
0.26604276117160425 14.98119306535924 1382862.6174184855 4.011467416603397 0.17666745787289137
0.27882003017936213 14.723427620782628 1116422.8980364266 4.247831720187271 0.17945871472729208
0.2919777311947325 14.498296652170591 905783.0084198727 4.494569494394279 0.18226890860978698
0.30551468157525496 14.301108395567638 738545.2232383206 4.751837944362712 0.18509377710666106
0.3194328144180668 14.128014453443042 605003.5591521512 5.020316800099502 0.18793988277165993
0.3337338218391194 13.9758146932269 497588.91846185183 5.300233587144223 0.1908039163838828
0.3484167861853747 13.841894357283817 410924.09701681626 5.592313013809875 0.19369209525132666
0.36348271009622984 13.723831786093069 340598.04723254265 5.896727326504503 0.19659957392262636
0.37893761447197344 13.619880077097468 283238.12169596984 6.214338628246717 0.19953399125274976
0.3947733504485163 13.528317358771087 236344.1100927315 6.545400058710785 0.20249144920608553
0.4110006295111623 13.447748228568745 197807.47526266848 6.890622661620544 0.20547580464180495
0.42761122513860295 13.376945900765971 166030.12735539494 7.250707904144124 0.20849006301008413
0.4446102929890931 13.314804267413008 139762.00523738688 7.625908763569753 0.21152967442850384
0.4619913545352155 13.26046387261654 117937.01531642892 8.01718632736876 0.21460098663557958
0.4797619957492734 13.2130847631641 99776.77592314973 8.42524038053373 0.21770555883044737
0.4979217995472631 13.171904108866665 84612.67479335115 8.850503817329766 0.22084074252854274
0.5164645370438895 13.136321332628317 71914.19871878174 9.293866006620211 0.22401017120367447
0.5353857502853591 13.10577498891196 61254.12252385096 9.7562047184505 0.22721665657516238
0.5546965566078239 13.079737178889484 52280.757690811515 10.238323838915115 0.23046147124625194
0.5743822160980498 13.057785459246942 44711.029212452355 10.740701367057644 0.23374139930289015
0.5944422552957035 13.039476880670927 38308.72925943563 11.264587007352958 0.2370626842478085
0.6148835260932652 13.024463148970197 32888.08250556871 11.810914053215567 0.2404268798823532
0.635690996298522 13.012403381854657 28278.015382053065 12.380662090670379 0.2438356201993187
0.6568662764153274 13.00300083615983 24359.618380352334 12.974504468815699 0.24728667673887722
0.678400856597994 12.995960331367499 21017.05502675624 13.593799654083943 0.2507851866752898
0.7002935943508609 12.991052794794108 18162.941966601637 14.239731094617495 0.25433361762687634
0.7225318847799913 12.988005170896328 15720.560614555545 14.913489236286404 0.25793395566313826
0.7451242712951626 12.986650836455942 13626.773785561943 15.616082006956614 0.26158587596891303
0.7680485426588747 12.986766630746862 11829.42276470537 16.34881969704915 0.26529171065652407
0.7912994124879741 12.988144673236965 10284.23956365625 17.113298380906446 0.26905593947406725
0.814875558560268 12.99067830358414 8950.955614955863 17.910974102758242 0.2728809969668853
0.8387639949315804 12.994151379908168 7803.065752951093 18.743181199977336 0.27676768256750484
0.862948565388893 12.998417160069264 6809.946308920929 19.611327075002272 0.28071703536077314
0.8874343276961855 13.003374197693502 5951.566015650697 20.517468864029016 0.2847351458594214
0.912194095132212 13.008880022399898 5207.953883952349 21.463402015592358 0.2888250300350004
0.9372195646385264 13.014772068487463 4562.6219019919745 22.45057110516791 0.2929862867207477
0.9625068928328492 13.020974672174225 4002.1308250401253 23.48108220052263 0.2972233570413169
0.9880326909685061 13.027366377752434 3514.2370376806384 24.557320910997902 0.30154203125159085
1.0137789907850159 13.033823096531629 3090.1404870372203 25.681182536124354 0.3059435862863669
1.039745746464366 13.040285341787829 2719.577684149522 26.854724511950046 0.310429988347489
1.0659021826830215 13.046605036030453 2396.6993118696137 28.08099991247836 0.315009631706032
1.0922395040006894 13.052731751963957 2114.285953255187 29.36200745033092 0.31968256852028276
1.1187409131294186 13.058572819322517 1867.067196443869 30.700618407312714 0.324454268760166
1.1453754667204303 13.06402579696623 1650.810663127113 32.10011602024925 0.3293319966257219
1.172143362438184 13.06903010389104 1461.0458582018007 33.56256744199797 0.3343142631137932
1.1990027728108688 13.073494538467695 1294.4290526553614 35.09245813159924 0.3394142439285047
1.2259532530738448 13.077353781120058 1148.2053278173155 36.691739514807814 0.34462825564184496
1.252951654700027 13.080515108297703 1019.4289194351137 38.36553547131246 0.3499711738093686
1.2799987192749622 13.082950011671644 906.0291502072026 40.11616832976305 0.35544003925542594
1.3070521418992438 13.084548854148249 806.141189004284 41.94895770759351 0.3610485188936329
1.3340861537567508 13.08523766738129 718.022835168941 43.86755108829021 0.36679945414452275
1.3610964423918783 13.085029267367121 640.1033389332032 45.87647637288895 0.37269969580719187
1.3880382903984734 13.083780049782597 571.3180565589194 47.981151763112166 0.3787596605319872
1.4148835092489613 13.081450203482914 510.40204799870327 50.18643381765768 0.3849854947114813
1.4416162624997741 13.078003742127786 456.49940940251093 52.49736048173495 0.3913832124451073
1.468212127546691 13.073396070576987 408.6762103402163 54.92044489831482 0.3979649927564178
1.4946245685368509 13.067519154641033 366.2276847247803 57.46188259700141 0.4047399061640139
1.5208372597289435 13.060365498382543 328.571476347375 60.1283077234813 0.4117177340537875
1.546822145280991 13.05186705215939 295.0423126450237 62.92683252934602 0.4189090272229798
1.5725401988741252 13.04197293828892 265.24019710858454 65.86509064361013 0.4263251692059617
1.597954194897227 13.03062704238477 238.70931971709015 68.95128450994817 0.43397844494143556
1.6230627027907387 13.01781124852346 215.0420623696638 72.19423742141858 0.44188211540930955
1.6478045444742409 13.003443927593745 193.9188720227664 75.60345063858341 0.4500504989414542
1.6721529127734172 12.987498454593158 175.0887514746677 79.18871623806592 0.45849718139614715
1.696089688853765 12.969933223120124 158.22601365127784 82.96054341876162 0.46723674135390686
1.7195704318220457 12.950704543580445 143.15476902069514 86.93153290620442 0.47629011317866654
1.7425473726804008 12.929736945156586 129.6657186694931 91.11310819892276 0.485670993749072
1.7650309738805974 12.907081579409935 117.57041312076399 95.51970328862538 0.4954026423580675
1.7869415805568205 12.882598632010547 106.73141057405572 100.16466229520387 0.5055012683414013
1.808291113949083 12.856353338845278 97.00100154133351 105.06469630396026 0.5159932637037457
1.8289955155403779 12.828194995651877 88.25503468164138 110.23636577646394 0.5269011937884459
1.8490752052557886 12.798210955129544 80.39757217042886 115.69752813687573 0.5382492152799464
1.8684461741685883 12.766252130415008 73.3199683157335 121.46801461326262 0.5500652118253707
1.8871221954082196 12.732412311131073 66.94890534751147 127.56926906154881 0.5623790307510459
1.9050397556551522 12.696574383497586 61.19946652740835 134.02413941355746 0.5752213728000403
1.9159460285432277 12.664337642444663 57.48248744164263 142.09547923021614 1.8842175110994754
