M[M_sun], R[km], Lambda[1], P_c[MeV/fm^3], rho_c[fm^-3]
0.24162668629717493 15.618656898711224 2160425.4255784233 3.5677272577965504 0.1711233750220791
0.25364346019998035 15.27728076110338 1723155.4474009902 3.784809415788369 0.1738880460370155
0.2660382001941243 14.981300780466382 1383021.606411774 4.011380064438214 0.17666640227352684
0.27881263947996254 14.723565802752155 1116526.1897041549 4.247695612675857 0.1794571360852693
0.2919666004105649 14.498459099897328 905952.2301672084 4.494381059500126 0.18226681034350714
0.30550123213717256 14.301288165489021 738721.6786527209 4.751590783304994 0.18509110729552372
0.31941709604315427 14.128192359689969 605125.6374908497 5.020009091736678 0.1879366901786311
0.33371478766084656 13.976006334572869 497705.2337901269 5.299857229729218 0.1908001270892036
0.3483944441568366 13.842081918408988 411038.5032140882 5.591867067168305 0.19368778059489378
0.3634563232860536 13.72403350738579 340668.2889127256 5.896201771089315 0.1965946377949475
0.3789086059993453 13.620047708777458 283332.8839482193 6.213727103387131 0.1995284148823542
0.3947391127395347 13.528526597604476 236424.31088548 6.544703198825467 0.2024853386863029
0.41096357470102834 13.447922426473795 197888.84260278614 6.889827012924027 0.2054690285636244
0.427570092119068 13.377110846778544 166102.6843677204 7.249805999535871 0.2084826017843984
0.44456463024241377 13.314986420570362 139816.16440017388 7.624903095358765 0.21152166866290187
0.4619440428049888 13.260609824799374 117995.70625700003 8.016059353066566 0.21459226857823252
0.47970808187130326 13.213206897458274 99825.08894150851 8.423983311178732 0.2176961074262485
0.49786418929774967 13.172046080266508 84657.45458074514 8.849121287551192 0.22083073242223636
0.5164002309811876 13.136441811167224 71949.82912517576 9.292335641166394 0.22399939733547242
0.5353178617138026 13.105875746297905 61287.59167690896 9.75451613986847 0.2272050956723731
0.5546235339660649 13.079844486202548 52310.41367678407 10.236472186942459 0.23044917807259616
0.5743037780684973 13.057877160112772 44738.93033432594 10.738682417998193 0.23372843702453633
0.5943594113134822 13.039552786667004 38335.1211125442 11.262376544653055 0.2370488732368583
0.6147944001228888 13.024520595841087 32908.39885999723 11.808499017009447 0.24041219243282105
0.6355945506520382 13.012460362252583 28297.645999153476 12.378028606256146 0.24382002714268966
0.6567654873084231 13.003034623971546 24375.85611601803 12.971664629669933 0.24727044538285087
0.6782957273031694 12.995982734254293 21032.636505135124 13.590713130605115 0.2507680017394888
0.7001824332842378 12.991070275481931 18040.64872230336 14.236381335417592 0.25431544501973186
0.7224141729839995 12.988004657488274 15733.548927727928 14.909858626437911 0.25791475926030055
0.7450004886701697 12.98664697500607 13540.97738930358 15.612187226088194 0.2615659684326239
0.7679183643268043 12.986750730133727 11838.181621135294 16.344607997174258 0.26527071638897853
0.7911622320183266 12.988129283068423 10291.604899274062 17.108748621824137 0.2690338155363277
0.8147344457433034 12.990664625077526 8958.422964329035 17.906063742592085 0.2728576976590045
0.8386149491688891 12.994119505536588 7809.622094028787 18.737932019086685 0.2767435652973114
0.8627932773638235 12.99839271185549 6816.414762278401 19.605670815091738 0.280691659289771
0.8872638250283298 13.003352519756035 5956.464277368073 20.511378298313826 0.28470845605610023
0.9120265640671982 13.008833311868262 5212.615663742964 21.45684805272136 0.28879696786392917
0.937044198796619 13.014719983106184 4566.394463960036 22.44358104811249 0.2929572540032745
0.9623204659090291 13.020925641983476 4005.915403342602 23.47356832063596 0.29719284094250586
0.9878439886203749 13.027325390128832 3517.5593816637866 24.54924783675095 0.301509960760076
1.013583718583362 13.033779519804856 3093.129869211632 25.67258151934999 0.3059103933061723
1.0395455351543001 13.040227422546888 2722.2616261692965 26.845490392986395 0.31039510350882793
1.065695200132481 13.04655407454639 2399.0268674557487 28.071089461324274 0.3149729686378186
1.0920247392948854 13.052686675816728 2116.311317573026 29.35145579396183 0.31964458903610404
1.1185212897016827 13.058527197504157 1869.1667836972074 30.689299556615843 0.32441434078088954
1.1451501729000961 13.063982885145455 1652.533412528064 32.08806692049717 0.3292905971057623
1.171912000553828 13.068992185945405 1462.6301153282366 33.54964674372631 0.33427071902843797
1.198765912425665 13.073454000506606 1295.851086707966 35.0786048442727 0.33936843486295054
1.2257092104348297 13.077325640791859 1149.4491137377947 36.67699384302281 0.3445806883872474
1.2527030270188413 13.080492417890254 1020.4589133221833 38.34981420269971 0.34992160555157636
1.2797432791185757 13.08293112554855 907.0125581099676 40.09933974969507 0.35538797725076093
1.3067865651885093 13.084516424965098 807.0058698256975 41.93103870893356 0.36099434704596745
1.3338206366862275 13.085236349563267 718.8100405959229 43.84834074631635 0.36674235107331915
1.3608278002284617 13.085038526051724 640.8306528289606 45.856014943560396 0.3726401967501795
1.3877581704694804 13.083782008624974 572.0013926508233 47.959351839751484 0.3786976109129343
1.4146128292136992 13.08149352321838 510.9842885120893 50.16305632846422 0.3849199884105087
1.4413360234929689 13.078046713204653 457.03767820604696 52.47244254168043 0.391314797117663
1.467928567851834 13.073453886583795 409.1573465942028 54.893876160501364 0.3978934744925073
1.4943373110515805 13.067591623878666 366.6628643105236 57.433543775646086 0.4046650760623181
1.5205484560904452 13.060450698053957 328.9537579704582 60.098069793529376 0.411639366990437
1.5465307324402684 13.051970190482683 295.39300282276434 62.894555846212576 0.4188268804982951
1.5722463349038314 13.042095111905233 265.5571762493852 65.83062397415773 0.4262389810560733
1.597670232631639 13.030774751884222 239.0052953546674 68.91446396472033 0.43388793290014277
1.6227574301723695 13.017962072929352 215.31384527850759 72.15488527692713 0.44178697450380566
1.6475089577521307 13.003627842950287 194.16531388171282 75.56137403705478 0.4499503997035622
1.6718579227138977 12.987702225783615 175.2989824116652 79.14392549145045 0.45839268509673264
1.6957957084781887 12.970161541984057 158.42610355719114 82.91260146491841 0.4671265708836048
1.7192608789401913 12.950922970273488 143.33784467441123 86.88019291979624 0.4761738533692059
1.742263470218927 12.930026375107849 129.82671101280997 91.05834881129647 0.4855491742678095
1.7647435770087354 12.907387831037504 117.7215585964024 95.46099690932927 0.4952738274533943
1.7866713255235822 12.88296223044458 106.85829786565839 100.10195780464292 0.5053659547711281
1.8080102900598984 12.856716450802951 97.12141801101257 104.99766850559742 0.5158509300334264
1.8287230286328917 12.828592982633502 88.36224254689186 110.16465995712909 0.5267512759945213
1.848803845087466 12.798637180797819 80.49196112514659 115.620464057755 0.5380900274852523
1.8681924262399845 12.766738452221077 73.40834010245582 121.38545204718879 0.5498971446966495
1.8868649759047231 12.732902156393916 67.0337105580039 127.48094706152803 0.5622020863967196
1.9047896640434236 12.69709867542205 61.2798316819541 133.92947083554265 0.5750344676327064
1.9219349084725266 12.659296297601053 56.09540575877998 140.756492724717 0.5884298618192616
1.9382515601791144 12.619419037773392 51.41147840063129 147.98977480983234 0.6024268765562091
1.953751235650486 12.577592794677171 47.179905296050414 155.65791950196063 0.6170616705427493
1.9683713703727264 12.533677776224875 43.355072090778975 163.79443383168206 0.632381403797142
1.982091811057686 12.487692781328374 39.89478785374327 172.4329456302065 0.6484271985755722
1.9948862291453908 12.439629834146483 36.7595567109482 181.6129599692952 0.6652530037570727
2.0067188204438096 12.389469058905656 33.91701384521559 191.3763305274801 0.6829127946147575
2.0175785639495247 12.337227203378756 31.273247601204783 201.76905771904504 0.7014657604528187
2.027419799814228 12.282857285457943 29.002138235190085 212.84118816853507 0.7209749693372969
2.0362357995921423 12.226406988360464 26.87996611212793 224.64789972049584 0.741509821199178
2.043985885380506 12.167831021366073 24.950691566852043 237.2505826472017 0.7631482840773034
2.050652015574403 12.107143247291665 23.196649650288265 250.7158588989656 0.7859722604193712
2.056225503265963 12.044391550503388 21.601367306161567 265.11681573880895 0.810069985522876
2.0606846652388837 11.97958104950001 20.149533709380233 280.53535556215417 0.8355418115192691
2.0639971759588374 11.912702130611942 18.82789307640541 297.06078649942754 0.8624934807716375
2.066165602647259 11.843819769042149 17.62471825008956 314.7935561043391 0.8910458749729275
2.0671658242741704 11.772945073286659 16.528472023294025 333.8431268551709 0.9213252348051616
