M[M_sun], R[km], Lambda[1], P_c[MeV/fm^3], rho_c[fm^-3]
0.24162668629717493 15.618656898711224 2160425.4255784233 3.5677272577965504 0.1711233750220791
0.25364472545748695 15.27726049554475 1723210.077259561 3.7848341430273966 0.17388835425012114
0.26604076145953504 14.98125955918093 1383032.1646376986 4.011432046129646 0.17666703044159032
0.2788164683435134 14.72350581466411 1116432.5658627115 4.247776607544074 0.17945807550368398
0.29197255455782 14.498385470763392 905864.0617702848 4.494493193018334 0.18226805897625722
0.3055089304619668 14.301183427114632 738622.1856828198 4.751737863046547 0.18509269603743841
0.31942632948202665 14.128088880864674 605057.2428310353 5.020192201236489 0.18793859001036542
0.33372681146995425 13.975893922756285 497653.04476267885 5.300081189894378 0.19080238199644964
0.34840773140761 13.841970854754377 410971.569445647 5.59213243728249 0.19369034812374933
0.36347060029235406 13.723977773168293 340627.9980252001 5.896514513214872 0.19659757513517404
0.37892563409834984 13.619952793973392 283277.7984467773 6.214091002291933 0.1995317332022032
0.3947585650851823 13.528405297960834 236379.3693453054 6.545117876799405 0.20248897485193182
0.4109855993764713 13.447820229078312 197834.75265524746 6.890300475488909 0.20547306076950778
0.42759420732871917 13.377019703756512 166062.2137486358 7.250342689769141 0.20848704168515633
0.4445906457219964 13.314885182256694 139783.1057617549 7.625501530006092 0.2115264325874868
0.4619740432097013 13.260523584900671 117962.61556256915 8.01672997049446 0.21459745634620817
0.4797393232614874 13.213121389287089 99788.84872988574 8.42473134094861 0.21770173156439154
0.49789817879682347 13.171961764718205 84630.27785098573 8.84994397164563 0.22083668900658596
0.5164383571357498 13.13637121761519 71928.34321106781 9.293246293481408 0.22400580838454268
0.5353583626566173 13.105812736865518 61265.89638488643 9.75552093508444 0.22721197503229074
0.5546662392287925 13.079780652746951 52296.213273637884 10.237577674949147 0.23045654019146844
0.574350728575473 13.057828425632543 44722.03656349079 10.73988379549542 0.2337361502402087
0.5944090679592035 13.039500803154107 38320.785670576646 11.263691879045298 0.23705709146994372
0.6148478786306829 13.024489055266693 32895.13565978025 11.809936078943528 0.24042093216706517
0.6356532142497917 13.012418468137852 28286.234268590008 12.379595651181688 0.24382930573197317
0.6568255446642369 13.003001983517361 24365.646894593396 12.973354461450208 0.24728010376835877
0.6783586074324686 12.995987228323617 21023.799858292805 13.592549745819486 0.2507782275209438
0.7002483662483345 12.991059166159395 18168.250032615342 14.238374582058531 0.25432625848003937
0.7224849280970785 12.987988349365153 15725.851710042147 14.91201898526513 0.25792618189177346
0.7450739857341269 12.986639167746253 13630.913695047902 15.614504772250987 0.261577814191319
0.7679959368082847 12.986765961835637 11833.740445202315 16.347114115886242 0.2652832087622015
0.791242692519286 12.988144089545907 10286.03088867087 17.111455891247665 0.269046980070776
0.8148197552457453 12.99067264935469 8954.241294138073 17.90898557482582 0.2728715615440325
0.8387024361849881 12.994144206352543 7805.6544802195385 18.74105545448087 0.27675791586683884
0.8628843226389172 12.998412415958887 6812.428556859334 19.609036466944538 0.28070675884702895
0.8873692051321245 13.00335872278799 5953.8185239625955 20.5150023660315 0.2847243372827597
0.9121264106040091 13.008852997159527 5209.68265570458 21.4607478450325 0.28881366564527633
0.9371486030722478 13.014749903469951 4563.974800744685 22.447740319654677 0.29297452924933065
0.96243343949246 13.020958701894534 4003.465572726764 23.47803926866548 0.29721099879090185
0.987956478350497 13.027347280273364 3515.5994624473124 24.554051506367355 0.30152904345905296
1.0136991583931279 13.03381002885644 3091.0114317669572 25.6776993158735 0.3059301438685885
1.0396659689061616 13.04026346362195 2720.683715801357 26.850984884144488 0.3104158607070327
1.0658183626214508 13.046584423965895 2397.512071185093 28.076986367538684 0.31499478385807705
1.0921522663237062 13.05271449574669 2115.0276406311264 29.35773421516058 0.3196671874974493
1.1186523492345772 13.058547176658184 1867.8487096270728 30.69603445270439 0.3244380985632523
1.145285550273287 13.064002476423546 1651.6149947029155 32.095236309748 0.32931523042107175
1.172050083058086 13.069012390370236 1461.6250701692936 33.55733472433519 0.33429662831575385
1.198907403621355 13.073475379763952 1295.0086092348693 35.08684770295992 0.33939569176198514
1.2258545197620843 13.077344272167128 1148.7037665066412 36.68576765916384 0.34460899135996087
1.2528508272193268 13.080500544081822 1019.7937446528059 38.35917794777117 0.34995115457721093
1.2798953484467634 13.082944268936526 906.4038129098067 40.109352861124606 0.35541895447235955
1.3069401299805896 13.084519645496064 806.5131525198157 41.941700599435116 0.36102657955622297
1.3339785213987851 13.085242927339138 718.3570363504808 43.85977095634136 0.36677632756878276
1.3609893754697495 13.085029570638754 640.417333119977 45.868189522495854 0.3726755987719323
1.3879206325342843 13.083767393082054 571.6199464167001 47.97232279004937 0.3787345304245959
1.4147711523591715 13.081460920031365 510.6474553192155 50.17696588435164 0.38495896451896994
1.4415024412681952 13.07802139631212 456.7297018056895 52.48726862162487 0.3913555039783383
1.468098048153514 13.073418286293055 408.8748383427835 54.90968441436028 0.397936027468843
1.4945080527903543 13.067548529536921 366.4054213610522 57.45040517108194 0.4047095994360808
1.5207202109584403 13.060400851367088 328.7319506131902 60.116061092134565 0.4116859946941122
1.5467046785553304 13.051908110780666 295.18853819937004 62.913760127145544 0.4188757569200775
1.5724208879882715 13.04202351899314 265.3671228177528 65.85113121057763 0.42629026192522707
1.5978340128782234 13.030684548271909 238.82950604655278 68.93637165895748 0.4339417862614429
1.6229323735496775 13.017861705848107 215.16184686431663 72.17829916105144 0.44184358179079697
1.6476843291811285 13.003519705413384 194.02223690684806 75.58640884633378 0.45000995692155416
1.672033831971293 12.987581940754685 175.16967919381204 79.17057509266606 0.4584548583114774
1.6959706771309693 12.970023202379242 158.3073671284123 82.94112587308831 0.4671921198905027
1.719450832561781 12.950806477451913 143.2276387717649 86.9107389744925 0.47624302515414807
1.7424273319341994 12.92982943159903 129.7443933169758 91.09092922695399 0.4856216537002276
1.7649153110262634 12.907204330277919 117.63757169909942 95.49592555264582 0.4953504686960179
1.7868408574660195 12.882764090791888 106.7861450197133 100.13926508922522 0.5054464622727259
1.8081785734989657 12.856499639539717 97.05005440329293 105.03754789300096 0.5159356139961683
1.828892246190977 12.828369756025849 88.30274159537598 110.20732246735457 0.526840471954844
1.848965211919709 12.798381547929624 80.43264830806395 115.6663143598905 0.5381847383877413
1.868340663053083 12.766437953832199 73.35947765781142 121.43457356433214 0.5499971381045256
1.8870177697758772 12.732610796061012 66.98311765754053 127.53354011716156 0.5623075220976493
1.9049391887402105 12.69678662756203 61.23375185424358 133.98579454593798 0.5751456681253837
1.9220781231090738 12.658961197296875 56.052949519370785 140.81698865524854 0.5885477308973768
1.9383909914719004 12.619064825127912 51.37375713880508 148.05480524748955 0.6025519658385087
1.9538873825547796 12.577212393157428 47.1474569824647 155.72766816073212 0.6171938512330605
1.9684990231665433 12.533273402093487 43.32622628907108 163.8693233951782 0.6325212981241285
1.9822114027114348 12.487265784917593 39.86520090515949 172.51366566336387 0.6485762392910515
1.9949962050578829 12.439178343807324 36.73226516580358 181.69980309447294 0.665411189713732
2.0068310039221093 12.38900944203793 33.88988749650103 191.46986070466613 0.6830809349360106
2.017674607503216 12.336725880177571 31.31665831528624 201.86989706267107 0.701644740340774
2.027507982311797 12.282334380138098 28.98092979462497 212.94976939066402 0.7211649256892033
2.0363148407869445 12.225855703088284 26.859770556156498 224.76522786110047 0.7417126256833999
2.04405533652382 12.16725278064386 24.9328107708719 237.37722931164726 0.7633642282741439
2.05071254715199 12.106535455317564 23.179872509602813 250.85279622450682 0.7862027636896188
2.0562815718076353 12.043777150412756 21.585370718007105 265.2652263904498 0.8103169494696836
2.060724332294684 11.978918376215725 20.135307074467892 280.6958607869338 0.8358050774451716
2.064025635875283 11.91201412317565 18.815411831306854 297.23492298291046 0.862775613076849
2.0661822151618026 11.843101315669196 17.613292863036865 314.98272220148425 0.8913486926883493
2.0671707216008763 11.772200526959306 16.518523896981936 334.0485702415518 0.9216497162232483
