M[M_sun], R[km], Lambda[1], P_c[MeV/fm^3], rho_c[fm^-3]
0.24162668629717493 15.618656898711224 2160425.4255784233 3.5677272577965504 0.1711233750220791
0.2536440864624035 15.277269261339262 1723096.901294745 3.784822664650258 0.17388821117768746
0.26604053537864136 14.981236590315868 1383017.4872991305 4.0114079161837335 0.1766667388454345
0.27881589205579393 14.723507748345767 1116415.9399577691 4.2477390095663266 0.17945763942380105
0.29197023033576436 14.49841487022021 905908.1650289501 4.494441140296104 0.18226747935711438
0.3055055270980864 14.301231076960185 738624.2402726252 4.751669588018675 0.18509195853683255
0.31942174770020526 14.12814359536363 605146.8964744203 5.0201072008544205 0.18793770809859434
0.3337226420101628 13.97587550109668 497686.4567501139 5.299977226180769 0.1908013352543606
0.34840156028089714 13.842022927833828 411003.9967829954 5.592009250545337 0.19368915625817987
0.3634624754686941 13.724031356031208 340641.16266886535 5.896369335717667 0.19659621159739746
0.378917680888944 13.619997286485253 283305.50382195774 6.21392207701347 0.19953019280706288
0.3947508222075432 13.528426445952634 236406.3059089809 6.544925379007586 0.20248728690634935
0.4109754435702182 13.447861456816884 197867.06180490108 6.890080688800825 0.20547118897384214
0.42758312389793135 13.377080185841342 166081.47562143445 7.250093551536693 0.20848498062840795
0.4445786767174508 13.314927437727928 139805.94369991467 7.6252237287110205 0.21152422111055239
0.4619603118147281 13.260592573616533 117980.25059583415 8.01641866032716 0.21459504811038066
0.47972506243043705 13.21315031886233 99809.56138326737 8.424384094126346 0.2176991207537303
0.4978821172094108 13.171980682427854 84639.54611724586 8.849562068430224 0.22083392386413173
0.5164200432354742 13.136404764518424 71937.47612285023 9.292823553108272 0.22400283226596102
0.5353385374662535 13.105851747312 61276.01745962065 9.755054490986087 0.22720878150909016
0.5546446230447868 13.079834889105932 52298.56501272599 10.237064486361017 0.23045312255566702
0.5743282868801017 13.057860644246254 44327.00174629026 10.73932609217501 0.23373256961213681
0.5943861865211921 13.039538037551473 38328.403600649224 11.263081273399107 0.2370532763948166
0.6148226299130759 13.024503694451653 32900.609891044674 11.80926896344948 0.24041687499180373
0.6356269300865148 13.012451674587062 28292.084738375335 12.378868193238485 0.24382499839951194
0.6567973568135883 13.003036781879553 24176.69723316628 12.972570001683232 0.2472756201180136
0.6783292630547435 12.995984562733264 21027.771996081774 13.591697143959513 0.25077348046221315
0.700217826909808 12.991063431801969 18172.113573981536 14.237449266133092 0.2543212385959838
0.7224514919583686 12.987997618391818 15729.191687455404 14.911016089524727 0.25792087920394957
0.7450400068983035 12.986651338896078 13633.66945300602 15.61342890414671 0.26157231506722145
0.7679608685618069 12.986758728175268 11836.390724667433 16.345950704855323 0.26527740945000594
0.7912054045382105 12.988140814331768 10288.720374797947 17.110199097769684 0.2690408687096785
0.8147786304973925 12.990676544825742 8956.057925404937 17.907629172202224 0.27286512551057096
0.8386609845810797 12.994143608903737 7807.29734102657 18.739605459121393 0.27675125388840977
0.8628437019408004 12.998403449770958 6814.586556168241 19.60747402393671 0.2806997491506341
0.8873231303310378 13.003353181047133 5955.149705338936 20.513319954588255 0.2847169646949534
0.91208350287485 13.00883184039835 5211.177336611275 21.458937429328024 0.2888059139695026
0.9370995065298193 13.014737629091604 4565.206254576198 22.44580944158279 0.29296650948109526
0.9623834548191156 13.020944687027413 4004.4912765074237 23.475963695118498 0.2972025692700146
0.9879041440047098 13.027334926899687 3516.5403368300026 24.551821466782553 0.301520184570432
1.013645959326397 13.033792495552117 3091.76205523256 25.67532344291131 0.3059209749172601
1.0396107331867237 13.040247526325718 2721.328546336108 26.8484341298347 0.31040622441656346
1.0657609457874766 13.046569963098149 2398.277985360267 28.074248790623727 0.31498465637067896
1.0920931272791958 13.052707160481567 2115.7516952304386 29.35481951869783 0.31965669637981614
1.1185913122520355 13.058534926009822 1868.5664551628477 30.692907835149256 0.3244270692172268
1.1452229694421205 13.06398964007457 1652.0797627453387 32.09190797640227 0.32930379459552345
1.1719857305638794 13.069003615132127 1462.0472466374101 33.55376563078349 0.33428460010249567
1.1988419229140181 13.07346941108064 1295.384960355415 35.08302100208247 0.33938303789960433
1.2257874044330563 13.077330668889395 1149.0380135829857 36.68169445654427 0.34459585183882835
1.252782305873991 13.080499145691123 1020.1475144128817 38.354841711828655 0.3499375001859279
1.279824727070463 13.082937777821503 906.7258223814245 40.104704301390164 0.35540457338152465
1.3068691321939792 13.084526236362167 806.7266822421624 41.93675083595968 0.36101161567135087
1.3339061901783758 13.085238286518777 718.5632952356735 43.85446448876599 0.36676055400284585
1.3609144567909834 13.08503510895049 640.6199511275739 45.862537470535436 0.37265916337260463
1.387845126887395 13.08377568229467 571.8036364088375 47.96630100985324 0.3787173904942848
1.4147022959176685 13.081482096347179 510.81243830217795 50.17050833858393 0.3849408697640926
1.4414245438999056 13.078032447274852 456.8634575002008 52.48038556234802 0.3913366056764235
1.4680198240630193 13.073433254368812 409.0108068119845 54.90234536115983 0.39791627205752733
1.4944285780126332 13.067569621924752 366.518832375699 57.44257717444229 0.4046889292121052
1.5206404854292905 13.060422257923069 328.82574661956284 60.10770851235891 0.411664347473239
1.5466240977688523 13.051936276256493 295.28796267538917 62.90484439121486 0.4188530656633015
1.572340101259235 13.04205750686561 265.4529298924413 65.84161054449066 0.4262664543276617
1.5977644058029996 13.030729377296803 238.91643328949263 68.92620079279737 0.4339167842998432
1.6228510225156862 13.017907335125045 215.234873674957 72.16742900368399 0.44181730122519436
1.647603269532573 13.003570726169684 194.09335266221635 75.57478612625802 0.44998230674593276
1.671952100778279 12.987636080654465 175.23156764048179 79.15820265810989 0.45842599356320773
1.6958883578428692 12.97008909741309 158.35526465348732 82.92788299827468 0.46716168780275047
1.7193696838192316 12.950877639798872 143.2773146935053 86.8965574811227 0.47621091104909297
1.7423520249869184 12.92993573259585 129.7864073653897 91.075803212369 0.4855880038854618
1.7648349565047454 12.907291900345678 117.67548403657763 95.47970928573633 0.49531488658550205
1.7867615127603755 12.882855695966025 106.81675243119707 100.1219444495068 0.5054090850836482
1.8081005443748235 12.856599436900172 97.08173011613343 105.01903305462076 0.5158962976980593
1.8288106430769202 12.82846667324961 88.32999515692975 110.18751545148712 0.526799060753485
1.848890988888955 12.798502185384592 80.4639840628787 115.64502727176759 0.5381407666092887
1.8682676502600386 12.766564066538056 73.38555413982479 121.41176767027609 0.5499507136616553
1.88694645065539 12.73274595897473 67.00819525016975 127.50916283172295 0.5622587152223633
1.90487044597768 12.696931424589978 61.257032890222895 133.9596447023725 0.575094040214731
1.9220120980198132 12.659115532350105 56.07304064837196 140.7889016519359 0.5884930067339762
1.9347194089473638 12.621809907492723 52.13291850377193 148.6217943631972 1.1129641694405656
1.9361963613236974 12.582087606052829 50.26524083414527 158.72607048076628 1.7355890849874518
