M[M_sun], R[km], Lambda[1], P_c[MeV/fm^3], rho_c[fm^-3]
0.24162668629717493 15.618656898711224 2160425.4255784233 3.5677272577965504 0.1711233750220791
0.2536367388531068 15.277480637697982 1723506.364358849 3.7846988896168683 0.17388666838160732
0.26602642953370376 14.981575364610556 1353727.1156099401 4.011147721810643 0.1766635945499919
0.2787932052822652 14.723947907530553 1116773.1342314032 4.247333598682726 0.17945293726849246
0.2919399709179597 14.49888608805349 906290.1345090677 4.493879880415233 0.18226122959807925
0.3054676290655356 14.30172225889764 739035.9035260928 4.750933428504206 0.18508400660909471
0.31937524716654464 14.128659676177756 605445.9448023615 5.0191907250911285 0.187928199308823
0.33366347219522713 13.976529121532806 498088.11630437727 5.298856313852916 0.190790049527149
0.34833511766925634 13.842526663304627 411323.7566423827 5.590681109308251 0.193676306126352
0.3633870632941574 13.72454703997078 340952.60493955493 5.894804136568089 0.19658151091575318
0.37883113161709514 13.620522623902673 283589.117621827 6.212100888069481 0.19951358575674794
0.39465225335685616 13.528958703397574 236662.51587754255 6.5428500973933 0.20246908949016018
0.4108658206760267 13.448384266366107 198096.97380184435 6.8877112639993445 0.20545100995794222
0.427461553558437 13.377527335973152 166299.97829778807 7.2474077603687155 0.20846276176638456
0.44444402546803813 13.315384617614729 139983.61855039996 7.6222290001893755 0.21150038114591596
0.4618120894056926 13.261001096767153 118147.28423384108 8.013062776065633 0.21456908763250185
0.4795639754765804 13.213554038339954 99956.45468401663 8.42064089897224 0.21767097715906225
0.4977082984731379 13.172339188821452 84771.84045057818 8.845445368852715 0.22080411720026016
0.5162323533401401 13.136730283943702 72058.83657278387 9.288266750326791 0.22397075209029585
0.5351359575987042 13.106141301051174 61379.50485470367 9.750026704982194 0.22717435862474528
0.5544286784983513 13.080091690677724 52398.23774822269 10.231532961440813 0.23041628475755332
0.5740924712152814 13.058069492383186 44809.10528510102 10.733314865156554 0.23369397567263323
0.5941394252099214 13.03973538503471 38399.742116543304 11.256499976244196 0.2370121563310956
0.6145574129627048 13.024671575686378 32966.34926076945 11.80207873800319 0.24037314642446403
0.6353444555890408 13.012579382850781 28350.987987844946 12.371027757978473 0.24377857460055383
0.6564945167387776 13.003112017676777 24421.861403881187 12.964115359739678 0.24722729685165334
0.6780134719004859 12.996065290151247 21072.09528420679 13.58250828330951 0.250722319347957
0.6998844468785397 12.991111501263696 18212.26576988256 14.227476944823236 0.2542671382661785
0.7220966160691438 12.98805797741043 15764.808692667291 14.900207902847992 0.25786373224681286
0.7446698390000348 12.98666431533668 13665.01667694157 15.601834498502342 0.2615130521564406
0.7675722821281563 12.986743895884008 11863.261747126962 16.333413132334748 0.2652149127955227
0.7907980977508058 12.988110898415995 10313.615865136053 17.096655470476314 0.26897501063640783
0.814356768976661 12.990604999120537 8979.045327541124 17.89301243432997 0.272795770134514
0.8382198918655667 12.99404952783614 7826.5326232285815 18.723980427684953 0.27667946495356777
0.8623809783380758 12.998316370293958 6831.948527457391 19.59063762581026 0.28062421485040134
0.8868361023900763 13.0032578751491 5970.982731145682 20.495191203717468 0.2846375216977303
0.9115787571536486 13.00872808918324 5224.956513740338 21.439429795909813 0.28872238793236266
0.9365795245647859 13.014628899179149 4577.910318659316 22.42500416411133 0.2928800962032075
0.9618386681320027 13.020806978914527 4015.5298764885724 23.45359980742194 0.2971117428771204
0.9873443860604073 13.027198242286547 3526.4242327270713 24.52779376742884 0.30142473392738417
1.013069874200017 13.033651327039395 3100.685527860771 25.649724908926533 0.3058221852446136
1.0390118509758144 13.040100052620266 2729.386308121533 26.82095197301353 0.3103024017767926
1.0651481251682935 13.046437294962484 2405.142540480275 28.044754447513213 0.31487554397038986
1.0914578573456963 13.052559964197998 2121.9871889770993 29.323417482945985 0.3195436683320577
1.117936714751603 13.058401845160635 1874.2165965507495 30.65922340007762 0.32430824518981466
1.144549250327086 13.063858853830181 1657.0340145282996 32.05589196435207 0.3291795645401878
1.1712954239882853 13.06889230454478 1466.6231936067102 33.5153158230006 0.33415502028592625
1.198138610188829 13.073368043316139 1299.484186290105 35.04179697064289 0.33924672120349386
1.2250629077164303 13.077235557948033 1152.7040010310184 36.63781577649352 0.3444543060092583
1.2520423724449719 13.080421823103016 1023.4574795690366 38.307815475648994 0.3497885627913161
1.279068680295794 13.082882448459982 909.7347078130691 40.054629786121254 0.35524965956009735
1.3060957076535367 13.084485078949829 809.4288199900685 41.88343281871773 0.36085042722758426
1.3331188509077663 13.085225442654679 720.9811439102295 43.797305559855005 0.3665906481057012
1.3601136387432924 13.08505306833653 642.8371772501168 45.801657334199625 0.3724821322060815
1.3870321951927242 13.083836391704331 573.7191371727056 47.90143979105948 0.3785327745279408
1.413868097136008 13.081555134197538 512.6323245191146 50.100955282473734 0.3847459744359666
1.4405961610547258 13.078174424057481 458.4436846288139 52.406251019814896 0.3911330599984403
1.4671685661183915 13.073589754144729 410.4648498651641 54.82330128651999 0.3977034996243637
1.4935753863261518 13.067776698558278 367.8343108754458 57.358268960394945 0.4044663090772785
1.5197799465201345 13.060682108443673 330.0142951178247 60.01775261290056 0.4114312104932006
1.5457559509826928 13.052242918611366 296.3555647752066 62.808825707469474 0.4186086904793456
1.5714679494243302 13.042417567452143 266.44566851914084 65.73907954706678 0.4260100629468123
1.5968811866049135 13.031136794914316 239.76187327951754 68.8166703510689 0.4336475372313058
1.6219745632969902 13.018378952835501 216.01381277016034 72.05037088875957 0.44153429212379935
1.6467135269149529 13.004105674885329 194.80868114503005 75.44962715028029 0.44968455650813866
1.6710786940873656 12.988245994418847 175.8794683959037 79.0246205965507 0.45811369738612595
1.695009780757624 12.97076782956877 158.96370036352462 82.78528459551055 0.4668339970885124
1.7184980264858143 12.951629454271943 143.80868562780617 86.74385643594817 0.4758651183121163
1.7414975804358508 12.930788746269773 130.26662587591457 90.91293594277364 0.4852256841598991
1.763981940272288 12.908211092761286 118.12399938471219 95.30510809470869 0.4949317725858359
1.7859136767923165 12.88384775035801 107.22004551426002 99.9354573456474 0.5050066540040337
1.807251158712157 12.857650173245212 97.45413432202344 104.81969373135175 0.515473000227266
1.8279976999435363 12.829657423311124 88.66217503407269 109.97353422183369 0.526350481912802
1.8480733168809125 12.799734995903508 80.76220697335732 115.41585467110536 0.5376673750977053
1.867487933738017 12.767953966397837 73.66320405885162 121.16625125478922 0.5494509322114528
1.8861768652919182 12.734210017537256 67.25860087943029 127.24592529678343 0.5617303995901488
1.904111592548144 12.698461001603704 61.490589871122445 133.67798523584275 0.574537707324538
1.9212788720595864 12.660758631452689 56.287196062048594 140.48655935029586 0.5879039289554149
1.9376368698977595 12.621038402065182 51.585381312060846 147.69961831580045 0.601868746103753
1.9531491682244557 12.579257240962361 47.34046092226819 155.34672076528275 0.6164719177853121
1.967802209631732 12.535460182316319 43.503904231066514 163.45937987269542 0.6317541100635107
1.9815569366091663 12.489599452047305 40.02814959865434 172.0728210384957 0.6477622678921865
1.9943931084474673 12.441680358646312 36.880751527183364 181.22553144612075 0.6645472973301098
2.0062504376502175 12.391592158048377 34.03053711398851 190.9590846845019 0.6821627067587244
2.017136817093803 12.339445787477338 31.443880057582962 201.31922215618368 0.7006673467013591
2.027019105789009 12.285202364793061 29.09796014373867 212.35631549676992 0.720125920797577
2.035878611200071 12.228878504531139 26.967909274901377 224.12454936046024 0.7406051976426514
2.0436711576940625 12.170421681846907 25.030691014833874 236.68536855598578 0.7621840446866274
2.05038089718771 12.109859734058919 23.27060519351593 250.10411950933837 0.7849410060853593
2.056007420351991 12.047248602659982 21.669538899800443 264.45490292462677 0.808968524143753
2.0605016034761983 11.982523932552716 20.212869285365553 279.818413079737 0.834364041444249
2.063871472458381 11.915788716232425 18.885665500027358 296.28420431630377 0.8612352784861156
2.066091216640111 11.847029682891433 17.67742448245655 313.94998805696963 0.8896954884461543
2.067145313934825 11.776284760784042 16.577849001654997 332.9270151103331 0.9198783094826801
