M[M_sun], R[km], Lambda[1], P_c[MeV/fm^3], rho_c[fm^-3]
0.24162668629717493 15.618656898711224 2160425.4255784233 3.5677272577965504 0.1711233750220791
0.2536448583037871 15.277254117166638 1723240.9782280868 3.7848371000228513 0.17388839110764298
0.26604093806735 14.981251178634563 1382895.2170935138 4.011438262368448 0.17666710556116766
0.2788175248495222 14.723481457135504 1116363.9786136015 4.247786293376771 0.179458187844747
0.2919732988605773 14.498363653687733 905772.6623875801 4.494506602655594 0.18226820829568033
0.3055099950429479 14.301141523680197 738599.7086721275 4.751755451861953 0.18509288603021354
0.3194281294884536 14.128049848924206 605064.5257234487 5.020214098842792 0.1879388172064825
0.3337247282439361 13.97598855551767 497648.6017527132 5.300107972858714 0.19080265165645954
0.3484093352478727 13.841957137520636 410964.8787333558 5.592164172525678 0.19369065517095724
0.3634733264079649 13.723920550097624 340626.08528439223 5.896551913787569 0.19659792640926763
0.37892813965994787 13.619932670911977 283269.9026777826 6.214134520865457 0.19953213003919396
0.3947618573405157 13.528393414749297 233247.85517323238 6.545167468240462 0.20248940970187512
0.4109882710019763 13.447828297226852 197838.35085516656 6.890357097253655 0.20547354298421677
0.42759780316611945 13.377003427040409 166058.59185807384 7.250406873273991 0.20848757265884313
0.4445939289853507 13.314874000312116 139777.14966805404 7.625573097900707 0.21152700231394594
0.4619775382853872 13.260514701897936 117962.80245275857 8.016810171219916 0.21459807676365908
0.4797434062541359 13.213118041959282 99796.01140536608 8.424820799999013 0.21770240417138914
0.4979031232022069 13.171965953871867 84628.85160297819 8.850042359209624 0.22083740137458704
0.5164433660172378 13.13635217626588 71926.07360430773 9.293355201941605 0.22400657510689212
0.5353629806900214 13.105832871559667 60674.204605303166 9.755641102989355 0.22721279776537634
0.5546710715471492 13.079781485577294 52293.479917810735 10.237709768661658 0.23045741915841556
0.5743562164154442 13.05782281476908 44720.06712885211 10.740027474715502 0.23373707270530789
0.5944149685143881 13.039497418330413 38321.124980756096 11.263849187668987 0.2370580743370712
0.6148538507649655 13.024485171613478 32894.44786794989 11.81010794643 0.24042197740813748
0.6356600827238962 13.012436249401151 28284.751856352825 12.379783064983386 0.24383041542299969
0.6568324881250478 13.003000167572337 24364.654277892376 12.973556560923036 0.24728125888607067
0.6783659034874088 12.995968045745549 21022.32171128276 13.592769401156229 0.2507794505030096
0.7002563677466086 12.991050489022314 18031.029047277752 14.238612971215977 0.2543275517528531
0.7224924794996812 12.988004097307549 15724.317322174209 14.912277361894404 0.25792754802640827
0.7450822357505756 12.986648709498773 13629.68163621703 15.614781949311345 0.2615792309365927
0.7680064899043062 12.986747465007191 11832.782201399183 16.347413847401434 0.2652847028486295
0.7912533086475837 12.988140745443365 10286.87099935754 17.111779681770482 0.26904855455444376
0.8148312747627731 12.990669577443809 8953.62575600605 17.909335028669837 0.2728732196775352
0.8387141934404237 12.994141503408951 7805.264574264359 18.74142902157961 0.2767596322143687
0.8628976298001577 12.998403752369397 6812.073102809879 19.609439005221596 0.2807085647824105
0.8873800645007383 13.00336303815078 5953.479157285361 20.51543581323854 0.28472623671562797
0.9121377436664063 13.008875273025597 5209.534678284137 21.46121427162827 0.28881566274888837
0.9371609502394059 13.014756307248678 4563.602401765907 22.44823778251366 0.29297659542683446
0.962446389890369 13.02096505785887 4003.18401415336 23.478574011471746 0.2972131705403257
0.987969270575348 13.027346313926008 3515.3180458682123 24.554626046561314 0.3015313258344965
1.0137133967082381 13.033803678633646 3090.784815732394 25.678311429272227 0.3059325061320806
1.0396796453880996 13.040268213024541 2720.440036128443 26.851642055060648 0.31041834338041746
1.0658327073980884 13.046591881387803 2397.3420335118285 28.077691672730694 0.31499739308867253
1.0921688022549867 13.052717056360926 2114.89019036942 29.35848515462995 0.31966989041845983
1.1186671741775975 13.058553161381306 1867.6456878644674 30.696839993284634 0.3244409401598468
1.145299911420106 13.064016931200356 1651.448101384608 32.09609382201581 0.32931817674876235
1.1720652296973235 13.06902604545375 1461.4256291182314 33.558254268395594 0.3342997272740464
1.198923418586623 13.073482741477584 1294.9176938203616 35.08783361966981 0.3393989519212621
1.2258709416340676 13.077348503060186 1148.5828620998832 36.68681708710522 0.3446123766520518
1.2528694099114595 13.080497785722807 1019.7600931013224 38.36029514647794 0.34995467252883655
1.279914211607034 13.082944604602588 906.3372212108407 40.11055053086086 0.35542265966240794
1.30695890183457 13.084527063461618 806.4733422855447 41.94297587502015 0.36103043490751996
1.3339979829186621 13.085238269574056 718.3047936143481 43.86113813819578 0.3667803915403085
1.3610070655908821 13.08503088187618 640.3590767408746 45.869645745502254 0.37267983327062193
1.3879400276702398 13.083769260081683 571.5761615788592 47.97387427522688 0.3787389464522415
1.4147907695285618 13.081458381498654 510.60273218347066 50.17862964730932 0.3849636265661278
1.4415221907593245 13.078018720641907 456.68810024407196 52.489042020771876 0.39136037306796073
1.4681183420581192 13.073416309659166 408.83694824397696 54.911575303511086 0.397941117402368
1.4945284584239809 13.067544822601318 366.3725653428113 57.45242204028913 0.404714925081985
1.5207410546200195 13.060394584357606 328.7129892862004 60.11821312465965 0.41169157207554985
1.5467272741427067 13.05189946172906 295.1694332572065 62.916057262115956 0.41888160331120755
1.5724417369303287 13.042014058774557 265.3504030293973 65.85358421196145 0.4262963959571572
1.5978559071693752 13.030673772861102 238.80924539768108 68.93899219156684 0.4339482280388332
1.6229551244310902 13.017850947198722 215.1415826463843 72.18109987437317 0.4418503530202923
1.6477064028400537 13.003505273236696 194.01603770314816 75.58940346708212 0.450017081053347
1.6720550978079785 12.987565104181295 175.15528756839583 79.17376288676232 0.45846229539863326
1.6959918904568654 12.97000659533225 158.29644229144097 82.9445379487812 0.4671999608305074
1.7194715314798488 12.950788613277835 143.21509338848566 86.91439289982219 0.47625129949725437
1.742452000805124 12.929836300020854 129.72441665199392 91.09482652270543 0.48563032374873155
1.7649349360666209 12.907182974761234 117.62764006422601 95.5001037708791 0.4953596366397725
1.786861184442619 12.882744158387872 106.77866858788761 100.14372786828197 0.5054560927563182
1.808198357861705 12.856474722116703 97.04292554100519 105.04231837922806 0.5159457441336709
1.8289119690725983 12.828341177452675 88.29022517049539 110.21242590808146 0.526851141891849
1.8489847050004682 12.798350523420806 80.42601134697857 115.67179917285492 0.5381960681186623
1.8683586223743827 12.766405864755594 73.35218359816604 121.44044973033125 0.5500090998251251
1.8870344907409045 12.732577273093277 66.97703654042428 127.539818288295 0.5623200873601065
1.904956724498032 12.696749776858367 61.22831162493694 133.99253235626784 0.5751589706550464
1.9220951630324892 12.658921838016584 56.04782984469537 140.82422562277247 0.5885618312621931
1.9384070195211853 12.619022884127375 51.367440553171846 148.06258472038039 0.6025669300416672
1.953900838050425 12.577166305614632 47.14269808171676 155.7360121195624 0.6172096638702859
1.9685140680899211 12.533227508399735 43.321371575514476 163.87828241506205 0.6325380336477261
1.9822258949475384 12.487214958026764 39.857815107437666 172.523322255193 0.648594069132034
1.9950106463550725 12.439122820243982 36.72888269373391 181.71019227089306 0.6654301137426354
2.0068440492756023 12.388952676319 33.888514686254744 191.48104994723016 0.6831010499715627
2.017687241268252 12.336665980218026 31.314614705669555 201.88196081239755 0.7016661523065476
2.02752010873693 12.282271731770265 28.97868894899997 212.9627594234339 0.7211876509743652
2.03632445909799 12.225789785889225 26.85798016871632 224.77926444244085 0.7417368882484104
2.044064798891087 12.167183566425432 24.931247179643197 237.39238083880556 0.7633900630197918
2.0507193965844546 12.106462134942369 23.17800506860289 250.86917219033003 0.7862303182026498
2.0562876628416413 12.043701078648827 21.584719553191107 265.2829598633726 0.8103464237188621
2.0607280357290017 11.97883924961713 20.133232831032984 280.715063527477 0.8358365744090612
2.0640285852153544 11.911930300014241 18.813550990391306 297.2557567553989 0.862809367521299
2.06618461451183 11.843015514398052 17.611205829646877 315.00535434660964 0.8913849223012946
2.0671706297284764 11.772110970304462 16.5167053228167 334.0731500665912 0.9216885380934755
