M[M_sun], R[km], Lambda[1], P_c[MeV/fm^3], rho_c[fm^-3]
0.24162668629717493 15.618656898711224 2160425.4255784233 3.5677272577965504 0.1711233750220791
0.25364426470825 15.277264303903229 1723237.848976524 3.784825869815087 0.17388825112852083
0.2660406523733457 14.981252622693715 1383011.5135240508 4.0114146540991324 0.17666682026916564
0.2788157256749107 14.723488361197667 1116378.3848929284 4.247749508206271 0.17945776119220327
0.2919708790380511 14.498385794240724 905845.8218944181 4.494455675173339 0.18226764120634575
0.3055063338552774 14.301208229162771 738607.7121008146 4.751688652683053 0.18509216447159327
0.31942324531781185 14.12810686956981 605114.7570659467 5.02013093576218 0.18793795435742316
0.3337213547405487 13.97596704552462 497679.89169552864 5.300006256233708 0.19080162753882413
0.3484032833632594 13.842008390143885 410994.93765552813 5.592043648245894 0.19368948906539524
0.36346702567216604 13.723949745890526 340654.9389130283 5.896409873888819 0.19659659234047971
0.37891992878012926 13.619992742054404 283287.5819234687 6.213969246253864 0.19953062293373983
0.39475171447622964 13.528464278142996 236402.8333126258 6.544979130364949 0.2024877582331389
0.41097819303988975 13.447873215802343 197860.54931940412 6.890142059980682 0.20547171163656325
0.42758709315336896 13.377034304935826 166073.89920046722 7.250163118472478 0.2084855561378392
0.4445826031787077 13.314902896411365 139794.98253993812 7.625301299146771 0.21152483862109858
0.46196412237875084 13.260581784235471 117976.33939731172 8.016505587326309 0.21459572056099652
0.4797294002090416 13.213165194402098 99807.1876439773 8.424481055572148 0.2176998497682531
0.49788618207204444 13.171981407274108 84638.80697825109 8.849668706827142 0.22083469597168848
0.5164251824882747 13.13639060114271 71930.59540623703 9.29294159426239 0.224003663283045
0.5353439418506608 13.105842781928912 61274.4989662791 9.755184735294117 0.22720967323056526
0.5546506455233445 13.07980394416764 52302.829042705474 10.237207782857235 0.23045407685443167
0.5743346757197945 13.05784117000627 44726.69091639319 10.739481818244752 0.23373356942174245
0.594391734027572 13.039521414057013 38324.36988267247 11.26325177102845 0.2370543416670901
0.6148290499758664 13.024518650719802 32899.29824894414 11.80945523991686 0.24041800786352083
0.6356346824717144 13.012448610096929 28290.38931117303 12.37907131866647 0.24382620112024356
0.6568055001113603 13.003016783209228 24369.461521480724 12.972789043283766 0.24727687206998003
0.678337841667307 12.995973757353857 21026.521754001024 13.59193521230026 0.2507748059629521
0.7002266366521807 12.991048918749907 18172.590109413173 14.23770763777522 0.25432264027475215
0.7224564640453718 12.988019979467143 15727.841272825446 14.911296123054049 0.2579223598467785
0.7450489325626823 12.986654758853483 13633.014216238644 15.61372931306052 0.2615738505583197
0.7679708712087997 12.986758902696309 11835.642443576538 16.34627555749367 0.2652790287589323
0.791215308627518 12.98813409528186 10287.801404493453 17.11055002460192 0.26904257514802987
0.814790800213659 12.990663780186862 8955.454281312375 17.908007911800027 0.27286692260288137
0.8386741693647631 12.994131084654056 7806.7289937880005 18.740010331587325 0.2767531140679041
0.862854065660633 12.998415873490533 6813.545946187528 19.60791029383349 0.28070170641851994
0.8873358770846403 13.003358360740537 5954.882325786205 20.513789721803814 0.2847190232877305
0.9120928066535096 13.008850205060247 5210.772039772894 21.459442937551174 0.28880807840932554
0.9371125395481441 13.014743589904747 4564.847510151289 22.446348584992403 0.2929687487758771
0.962397438116586 13.020948293554527 4004.2064035949497 23.4765432398964 0.29720492297355716
0.9879187470484446 13.027333584373443 3516.2788135971605 24.55244414096192 0.30152265815934937
1.0136608224115884 13.033799653153256 3091.61283453167 25.675986836128214 0.3059235350794465
1.0396271732840856 13.04025012989507 2721.203749603778 26.84914635259335 0.310408915065896
1.0657783492258348 13.046577361104399 2398.0213361280057 28.075013177019592 0.31498748416833794
1.0921096050853603 13.052706408731366 2115.58744017844 29.355633359515515 0.319659625707059
1.1186079885887696 13.058542256712041 1868.4389010661691 30.693780847295532 0.32443014882414256
1.145239257282446 13.063997268311347 1651.9454901476 32.0928373104421 0.32930698769574857
1.172003276719722 13.069013805001 1461.9205385781174 33.55476218822844 0.33428795860383453
1.1988600690610955 13.073463867341136 1295.3112991957485 35.08408948674395 0.339386571088713
1.2258066898371962 13.077337330262676 1148.9245577850038 36.68283176763979 0.3445995206283705
1.2528020611511352 13.08049527413732 1020.0618629467432 38.356052465082264 0.3499413127318528
1.279845967979384 13.082931451105075 906.6081117163094 40.1060022589804 0.35540858882868925
1.3068891798786737 13.084523856108929 806.6751248814317 41.938132893086596 0.3610157938394263
1.3339259894507216 13.08523526937461 718.4993076838333 43.85594614137867 0.3667649582406651
1.3609352632825178 13.085031922526978 640.566181879301 45.86411561394231 0.37266375239925725
1.3878657508534669 13.083771595339476 571.7459817571794 47.967982385108094 0.3787221762310199
1.4147228230762696 13.081480058791671 510.75188503339893 50.17231138348718 0.38494592209461115
1.4414463812150067 13.078029959861722 456.81534471299346 52.482307414482534 0.3913418823623291
1.4680415185118771 13.07342838964001 408.9603098298015 54.904394530718434 0.39792178805344397
1.4944507646554792 13.067564087654041 366.49376947586876 57.44476286097629 0.40469470062876234
1.5206629062213541 13.060417455040982 328.7999190617305 60.11004066650119 0.4116703916724187
1.5466468080248306 13.051928602268202 295.2562264742687 62.907333782560485 0.4188594013621915
1.5723625000378714 13.042047325153215 265.4338736059098 65.84426883632332 0.4262731017136308
1.5977870534312506 13.030718714791428 238.89446128768108 68.92904062443031 0.4339237651567652
1.6228755107597737 13.017894047490012 215.20767959871918 72.17046408127774 0.4418246390725792
1.6476260915227325 13.003554764199782 194.0758593731213 75.57803132308862 0.4499900269922871
1.6719747264147065 12.987622209785 175.216094300861 79.16165717906001 0.4584340529210621
1.6959127923473154 12.970067891440658 158.3504896202481 82.93158054952063 0.46717018476474464
1.7193915258842418 12.950857586145101 143.25898735313115 86.90051709774461 0.4762198776325732
1.7423751408221035 12.929919109513737 129.76377228368096 91.08002654248774 0.4855973992404241
1.764857698741624 12.907266738851781 117.66687372938118 95.48423701660207 0.49532482143801465
1.7867842809627694 12.88283060170384 106.81484068525086 100.12678052361764 0.5054195211217724
1.80812224952831 12.856572282010676 97.07328446682719 105.02420255082816 0.5159072751340914
1.8288318669291728 12.82843606122402 88.32055238316708 110.19304572482845 0.5268106230839461
1.8489120378007409 12.798468218777009 80.45362757900418 115.65097078075827 0.5381530438479162
1.8682877066445558 12.766528926518344 73.37607077611628 121.41813522919733 0.5499636756781688
1.8869665736709804 12.732707789909691 67.00161496923029 127.51597722832123 0.5622723713661552
1.9048899650911884 12.69689073863711 61.250201560838896 133.9669458881427 0.5751084550224395
1.9220309550553158 12.659073360441887 56.06838681325702 140.796743687923 0.5885082860022546
1.9383433543609554 12.619184720792406 51.38530910735593 148.03304271673295 0.6025101045278449
1.9538406677049232 12.57733915529553 47.156051019446444 155.70432658106714 0.6171496166030702
1.9684561240966976 12.533408172429159 43.33231384123472 163.8442612978897 0.632474481918113
1.982171183055664 12.487406191025997 39.87416385917981 172.48665225213307 0.648526361980799
1.994961381547941 12.439329926592071 36.74126813256266 181.67074043155466 0.6653582516702498
2.006797103870181 12.38916849351917 33.9008428388143 191.43856003335347 0.6830246653437968
2.017642497089503 12.336893704273152 31.323831410471445 201.8361501605373 0.7015848429183439
2.0274784041543605 12.282508051048808 28.98902556200578 212.91343143116214 0.7211013546030859
2.0362885616843576 12.226041482932152 26.866283611676103 224.7259624489099 0.7416447544836516
2.04403344927241 12.167444673850294 24.939881269956732 237.33484512970907 0.763291959350462
2.050692361676323 12.106738355183372 23.185001839821354 250.8069870103303 0.7861256842304537
2.0562647699829175 12.043991190386821 21.5913948850531 265.2155580447872 0.8102342984568309
2.060711103739706 11.979140450535345 20.139914950215324 280.64214449931046 0.8357169702311129
2.064016258385276 11.912244293839006 18.819723010814272 297.1766443940468 0.8626811913204674
2.066176477573672 11.843342712423716 17.617123382338903 314.91941325338126 0.8912473475143481
2.0671690618783605 11.772447900465572 16.521120675671263 333.9798133144437 0.9215411201491457
