M[M_sun], R[km], Lambda[1], P_c[MeV/fm^3], rho_c[fm^-3]
0.24162668629717493 15.618656898711224 2160425.4255784233 3.5677272577965504 0.1711233750220791
0.2536350433138204 15.277492138754676 1723474.5811853316 3.784647142536644 0.17388602337921594
0.26602020812540644 14.981708521923432 1383434.2478359218 4.011038944977735 0.1766622800461619
0.2787846914280709 14.724094562707581 1117024.09775817 4.247164118036314 0.17945097154839595
0.2919269329843145 14.49910698607521 906515.3037783259 4.493645254890033 0.18225861698840243
0.30545196910750194 14.301911795289907 739205.366161706 4.750625698708208 0.1850806825399868
0.3193553012219261 14.128886550999523 605607.4185697832 5.0188076307752745 0.1879242245574352
0.3336394886393801 13.976728875449723 498204.40198151727 5.298387777736109 0.19078533214589477
0.34830731619461747 13.842770801216801 411476.69851445506 5.590125968321748 0.19367093498459356
0.36335505828152964 13.724772262700426 341101.1016808304 5.8941499288804255 0.19657536645870552
0.37879395723666703 13.620762746818542 283712.90995430306 6.211339706700254 0.1995066446991826
0.39461069776890634 13.529197358291007 236770.39849460847 6.541982739358342 0.20246148393193691
0.4108191865759503 13.448580095690392 198201.72888096626 6.886720998483724 0.2054425764412624
0.42741028571395623 13.377724828137328 166380.0570052713 7.2462853067586845 0.20845347599532899
0.4443879334124197 13.315561696181815 140066.0642968308 7.620977467010448 0.2114904181370785
0.4617517159640326 13.261158631643168 118218.63368642189 8.011660351455907 0.21455823874433402
0.4794969171303785 13.21372401846715 100017.50863016368 8.419076661384969 0.21765921627917004
0.4976348000727233 13.17249930033736 83950.72161900984 8.843725090944623 0.22079166165318737
0.5161517043330829 13.136864045463348 72111.32778556936 9.286362616224157 0.22395734686750438
0.5350498724683949 13.106267832597162 60833.30175288049 9.747925821422529 0.22715997486383335
0.554337261743627 13.080202502599011 52434.283205229214 10.229221652479703 0.2304008923415169
0.5739969119153899 13.058165124210028 44845.0031236087 10.730803175951209 0.23367784984991097
0.5940354300554201 13.03981963948091 38430.42237662883 11.253750168627848 0.2369949754833473
0.614446087828071 13.024751305266586 32990.73158287037 11.79907458966622 0.2403548761902644
0.6352252618586101 13.012647000830333 28373.44313824335 12.367752035488774 0.243759178804624
0.6563695432807485 13.003163766395684 24443.33157727065 12.960583104258067 0.24720710792779
0.6778822330668152 12.996096855962527 21092.650833409134 13.578669384437543 0.25070094538754045
0.6997449474154894 12.991144944700523 18228.587265755847 14.223310847824639 0.25424453698663474
0.7219534109449809 12.988047351563134 15779.139930301428 14.895692733506541 0.25783985884449867
0.7445164357399303 12.986656030040741 13678.542603500233 15.596990992481294 0.26148829536648555
0.7674101286064325 12.986737485691785 11875.538776075837 16.328175766614248 0.26518880584098264
0.7906297581229939 12.988087942625206 10324.084474642019 17.09099799746417 0.2689475002609309
0.8141774284075852 12.99059231327272 8988.051341272352 17.886906867816908 0.2727667996579784
0.8380334081532477 12.994024617166513 7835.641330570117 18.717429267470852 0.27664926082861446
0.8621911445770039 12.998288945937784 6838.811414947268 19.583605237449348 0.2805926649589212
0.8866345032051615 13.003214686649923 5977.612017896504 20.487619224278323 0.28460434010977403
0.9113683508390216 13.00867821707993 5231.0028205636645 21.431282116253303 0.2886875019275355
0.9363666994210149 13.014567712302023 4583.029647744237 22.416314700113354 0.29284400511679043
0.9616119417549305 13.020752874618974 4020.079330263975 23.444259644148968 0.2970738096988359
0.9871110743696726 13.027137505109483 3530.552509434325 24.517759008362997 0.3013848705933394
1.0128263860209525 13.033595879356145 3104.5483574146697 25.63903436475161 0.30578092837575993
1.038757215987663 13.040026196346181 2732.656542347328 26.80947511654501 0.31025904427968687
1.0648891041254023 13.046375665900612 2408.285476450567 28.032437639709542 0.3148299787425656
1.0911913571836134 13.052494601947762 2124.662027979563 29.310304335301982 0.319496469052053
1.1176635934848949 13.058351424336317 1876.4696532583257 30.64515756617532 0.32425862704928093
1.144273619512319 13.06381394105106 1659.1350333351102 32.0408075563827 0.3291273967894506
1.1710066305246587 13.068832652279852 1468.564681522859 33.499260956964974 0.33410091373206025
1.1978371073762575 13.073307953446857 1301.2534722969558 35.02458424641389 0.33918980339084864
1.2247607562518545 13.077195510259967 1154.2059333611605 36.61949508768295 0.3443952063031371
1.2517380844042252 13.080396642938872 1024.8758697482194 38.28817634450639 0.3497263503291819
1.2787521767456278 13.082858458345461 910.9488223676108 40.03372334659777 0.35518498202060184
1.3057746053785415 13.084469615519625 810.589483180981 41.86117278073786 0.3607831317603901
1.3327910723048138 13.085223688782115 721.9935631690496 43.77344274089621 0.36651971546681444
1.359779870396543 13.085062598093018 643.7611711043091 45.77624166933006 0.3724082269050979
1.386693056705003 13.08384374899386 574.5636751623584 47.874362891077226 0.3784557049299778
1.41352342275187 13.081589883998857 513.3188279827493 50.07192072896512 0.3846646164173615
1.4402473515428538 13.07823161334497 459.1127414257303 52.37530483898371 0.39104809338040986
1.4668152609831537 13.073656126074038 411.0538616346384 54.79030667463987 0.397614684063134
1.493216893991736 13.06786979836877 368.37383391924385 57.32307804339307 0.40437338566790304
1.519418171951623 13.06079549562571 330.5049871215723 59.98020545629165 0.4113339002472519
1.5453918774350903 13.05237297783005 296.7892393759731 62.76874922760706 0.41850669265187435
1.5711014973177575 13.04256647381406 266.8293041870763 65.69628631273683 0.4259030531964292
1.5965192194165407 13.031321612990299 240.12873180687518 68.77095726311299 0.4335351655953324
1.621614192798906 13.018594848767139 216.34637302456164 72.00151772390439 0.4414161807882897
1.6463459109570913 13.004329837392957 195.10584712282932 75.39739495363739 0.44956029735014025
1.6707109157339546 12.988500421052537 176.15264458796273 78.96874990530755 0.4579828492627962
1.6946427879153343 12.971049942606463 159.1994112395893 82.72577834149965 0.46669725189010575
1.7181336441799628 12.951947112084893 144.03829063584604 86.68013670407021 0.47572082447011727
1.7411367210907587 12.93113405259962 130.46689696627004 90.84497618789642 0.48507449872038383
1.7636225499803362 12.908586695304963 118.30546506459271 95.23225494377637 0.4947719165053723
1.785558561134615 12.884261928497027 107.39479243706423 99.8576474033974 0.504838743524347
1.806905003357234 12.858101702840901 97.60367814190334 104.73630995078432 0.5152955795513366
1.827653596553062 12.830147844467026 88.80638512157388 109.88421490669127 0.5261631651579507
1.8477362179012171 12.800263153239543 80.90090601676313 115.32024560190078 0.537469879752882
1.8671582177866357 12.768520581319189 73.77532811335244 121.06382765023729 0.5492424352866487
1.8858565770244373 12.734814937870864 67.36437301545416 127.13611327005381 0.561510007728708
1.9037983506500358 12.699113813265724 61.58524369238621 133.5601566044405 0.5743044495861296
1.9209693012989875 12.661427602535264 56.372644013793725 140.36044438631177 0.5876582090464769
1.9373469514705652 12.621783743812543 51.669487628105024 147.56406049766994 0.6016079938961569
1.9528874147077295 12.58010742420314 47.41453275945172 155.20133773406152 0.6161964023881012
1.9675402306108745 12.536323267703034 43.57044479282775 163.30283674099965 0.6314609933765994
1.981304974113334 12.490493450448048 40.090346042503576 171.9045954484521 0.6474516577335765
1.9941550874744143 12.442619625698187 36.936820423640754 181.04455897514072 0.6642176534648943
2.006030853042577 12.392587520410675 34.085750944844115 190.76419274193776 0.6818123471761994
2.0169322644817127 12.340493949598562 31.492790707550146 201.10911740442546 0.7002944314921131
2.0268355899694375 12.286300505421817 29.184533082032253 212.12956963842245 0.7197284340538908
2.035703434866397 12.23001409768039 27.00702379451858 223.88013062216936 0.7401827140347307
2.043523801306164 12.17163578578121 25.068329745628557 236.4210017605645 0.761732406125301
2.05026061364694 12.111144750174976 23.304918715835992 249.81844923159605 0.7844594305696815
2.0558908673115974 12.048540132622483 21.701432122559897 264.1458184266136 0.8084541895816282
2.0604191690415647 11.983911364908327 20.24271011371198 279.4835697249431 0.8338138414823447
2.0638180019200907 11.917243054989903 18.912635863164958 295.92101096265816 0.8606458436920372
2.0660558204501065 11.848532404495332 17.702009841089595 313.5561425571031 0.889065019264316
2.0671347602796946 11.77784702639487 16.600532023268496 332.499233230395 0.9192025034109409
