M[M_sun], R[km], Lambda[1], P_c[MeV/fm^3], rho_c[fm^-3]
0.24162668629717493 15.618656898711224 2160425.4255784233 3.5677272577965504 0.1711233750220791
0.253642157893904 15.277363030545082 1723246.6115468333 3.784805618880032 0.17388799871038474
0.2660382377736248 14.981297437085487 1383104.661241514 4.011372082606438 0.1766663058178004
0.2788120267298705 14.723602684128723 1116470.3628323697 4.247683175910979 0.17945699183753855
0.29196516100175784 14.498502384179671 905957.4594838474 4.494363841481121 0.1822666186168694
0.3055001181500877 14.301289886667558 738667.1182867987 4.751568199434421 0.18509086334661956
0.31941603902153143 14.128193937164822 605144.7734654217 5.019980975687206 0.18793639846376603
0.3337115553703214 13.976028622356592 497722.35126963863 5.299822841323586 0.19079978085501956
0.34839275168713607 13.842086890319026 411040.9942215876 5.591826320579328 0.19368738636043642
0.3634522640716956 13.724086462434373 340694.3608477157 5.896153750938542 0.19659418677952933
0.3789058962660934 13.620092413026173 279429.4245258196 6.213671228611979 0.1995279053716824
0.39473613917778555 13.528521239921501 236433.70797232082 6.54463952747024 0.20248478037453332
0.41096021899556695 13.44792945560951 197892.2858833423 6.889754315885774 0.2054684094451405
0.4275665365084537 13.377122213925178 166101.54178187018 7.249723594695804 0.20848192007027508
0.4445606253555413 13.314983463177207 139819.76904898792 7.624811210504684 0.2115209372003816
0.4619402911792726 13.260620043590404 118004.12411739897 8.015956385600086 0.21459147204163367
0.4797027368525862 13.213237331322732 99833.88283457207 8.423868458250016 0.21769524389278602
0.49785781909902616 13.17203234654863 84655.3691114865 8.84899497266482 0.22082981784848882
0.516394124761273 13.136453965569098 71952.48333030357 9.292195820277811 0.22399841298769999
0.5353115118099604 13.105878887243355 61288.87707464755 9.754361865046588 0.22720403942528006
0.5546162113755833 13.079840145117272 52310.8353267614 10.236302452659983 0.23044804770848842
0.5742964507695616 13.05786923534178 44739.905680181946 10.738497961762116 0.2337272527583633
0.5943517645916376 13.039547282004003 38338.85439703639 11.262174592688918 0.23704761143733177
0.6147858152180462 13.024527783023181 32909.90218159354 11.8082783763994 0.24041085056978123
0.6355859315109869 13.012446245359053 28301.378038957635 12.377788009664249 0.24381860255241605
0.6567564136258981 13.003043377191252 24377.614018090124 12.971405181946025 0.24726896248605254
0.6782861529723063 12.995984528040644 21033.59860367515 13.590431147792687 0.25076643173473695
0.7001721105508475 12.991072434147116 18178.137823262732 14.23607530572367 0.25431378479370653
0.7224040669237601 12.98800682503669 15734.380821262357 14.909526940940353 0.25791300551404517
0.7449895379578148 12.986650907194855 13638.710729120163 15.611831408523328 0.2615641497292554
0.7679071919527184 12.986764813955094 11839.234982036094 16.344223229398548 0.26526879841811973
0.7911493533870636 12.988139185299639 10293.432013517433 17.108332972967823 0.26903179437668995
0.8147225204659252 12.990652026494375 8959.286556671406 17.905615153779408 0.2728555691371639
0.838601487815325 12.994122358284905 7809.520542564501 18.73745247990579 0.27674136206289546
0.8627804861730844 12.998380996272681 6816.905935370875 19.605154090892643 0.2806893410741706
0.8872525213053196 13.00333316949469 5957.51112758723 20.510821902382574 0.284706017842859
0.9120124142221835 13.00882111260414 5213.174309642352 21.45624932807099 0.2887944042983591
0.9370285500611572 13.01472119513943 4566.9330319261135 22.442942488674472 0.2929546017909096
0.9623040882715005 13.020921784679947 4006.098967180608 23.472881913683324 0.29719005323991987
0.9878269777886117 13.02731092245218 3517.8533158611203 24.548510351794825 0.30150703108244586
1.0135663097474366 13.033773827019207 3093.398687989006 25.671795810910925 0.3059073611059871
1.039527689360079 13.04022703054844 2722.4682149003847 26.844646856570126 0.3103919167801425
1.0656762840655567 13.046550308707081 2399.2420599578422 28.070184148831725 0.31496961949324864
1.0920048915947254 13.052680424980865 2116.4676560605367 29.350491913743156 0.3196411196591423
1.1185019547585036 13.05852212839437 1869.3628802747326 30.688265602141485 0.3244106934394827
1.1451297091004191 13.063974382497493 1652.7381493160776 32.08696626610762 0.32928681536568993
1.1718902880233653 13.068990211933572 1462.7516303659065 33.548466480318204 0.33426674141906243
1.1987432283334862 13.073447246633554 1295.955154437104 35.077339401978655 0.33936425038834633
1.2256872114314654 13.077323141715667 1149.5500716565448 36.675646893729 0.3445763433373289
1.252680669119392 13.080488476014162 1020.6060681711045 38.3483702508938 0.349917031428801
1.2797192591506683 13.082927773529113 907.0921031742852 40.097802559113525 0.3553832216966438
1.3067623178239216 13.084522707795474 807.0984588498587 41.92940192622619 0.3609893988038716
1.3337981191121635 13.085227535554967 718.8358072013106 43.846586022768456 0.3667371351274586
1.3608047397817715 13.085034911970144 640.9137998492266 45.854145955512614 0.3726347619868194
1.3877332599899608 13.083783003346158 572.0773208963675 47.95736060522305 0.37869194321668187
1.4145880229266279 13.081495344904315 511.0445041258942 50.16092101587703 0.38491400502932305
1.4413106899778443 13.078049559331179 457.0697556629143 52.470166540392896 0.3913085480708714
1.4679023465795782 13.073456641960396 409.20196398322446 54.89144939397797 0.39788694207347075
1.4943107313473842 13.067595408493196 366.69718527908844 57.43095535120538 0.40465824119569815
1.52052174753379 13.06045773932962 328.9791338017667 60.09530792927728 0.41163220911980386
1.5465041213212989 13.051979510038771 295.42671210563697 62.891607790688965 0.41881937746260667
1.5722197451572912 13.04210749218976 265.59117448302084 65.82747591787844 0.4262311089538143
1.5976431980468402 13.030786773607373 239.0349778239532 68.91110094270877 0.43387966593980054
1.6227237058218738 13.017948928678397 215.3355415849594 72.15129106121078 0.4417782848391826
1.6474823678896389 13.003644246434616 194.19241591141545 75.557531017978 0.4499412572522516
1.6718308579481416 12.987720814779374 175.3158572092634 79.13983460993119 0.45838314111695094
1.695769114428982 12.970182398014076 158.4439693713621 82.90822281436269 0.4671165087573805
1.7192334245927703 12.950947425058427 143.35261549322453 86.87550396371934 0.476163235190702
1.7422364450950527 12.930055578202195 129.84135634695684 91.05334759781876 0.4855380484087021
1.7647169700926515 12.907415191620391 117.7347694445819 95.45563526810962 0.4952620628153621
1.7866455763565765 12.882993076082506 106.87234177810467 100.0962310673994 0.505353596720604
1.8079855432796894 12.856749350343051 97.1345233088094 104.99154698098059 0.5158379309630714
1.8286980760177676 12.828627176935264 88.37365261392692 110.15810189959379 0.5267375495744084
1.848779135158365 12.79867530782759 80.5051887125375 115.6134260829906 0.5380754894580073
1.8681677611026857 12.76678379583159 73.41638506835653 121.3779119918965 0.5498817959071963
1.8868414214519658 12.732947362252048 67.0418294701061 127.47286260018082 0.5621858609473028
1.9047670329490551 12.69714642721724 61.28911907980828 133.92082536538888 0.5750173987902282
1.9219126774688806 12.659347998700472 56.10257456299073 140.74720689974865 0.5884117695010025
1.9382296489630921 12.619474993453677 51.4174105773442 147.979793032354 0.6024076761106051
1.9537419213111111 12.577684729277975 47.18528075449783 155.64721357722266 0.6170413817436927
1.9683521103450339 12.533738460740075 43.359520822098716 163.78293889385765 0.6323599311577565
1.9820725675982167 12.487760209642268 39.899188155569966 172.4205558610344 0.6484043222214653
1.994868308089094 12.439700030760632 36.764533328647495 181.59963046196216 0.6652287238746415
2.0067037396544034 12.389544767205061 33.92075090970162 191.36197473876362 0.6828869870412101
2.017563563403029 12.337304414775158 31.34381585871035 201.7535801827469 0.7014382893526226
2.027406682350164 12.282938417671643 29.006066005987297 212.82452248094913 0.7209458137139417
2.0362237145583557 12.226492501445021 26.88335857573074 224.6298916595947 0.7414786938371992
2.0439751034719893 12.167919877308007 24.953433820388852 237.23114449768505 0.7631151402467587
2.0506425201924445 12.107235925208641 23.197989181584273 250.69480806146555 0.7859367734656543
2.056217730953737 12.044489067534098 21.603185374634563 265.094037596404 0.8100320813705321
2.0606802118600194 11.979682596840343 20.151591395838874 280.5107213542432 0.8355014056847334
2.0639989412724695 11.912822157780452 18.83053646059012 297.0340604377684 0.8624501797629441
2.0661631825370974 11.843929489638226 17.626830456147324 314.76452362664384 0.8909993996863864
2.0671657074425727 11.773061253329056 16.53043827638463 333.81159651706025 0.9212754351547415
