M[M_sun], R[km], Lambda[1], P_c[MeV/fm^3], rho_c[fm^-3]
0.24162668629717493 15.618656898711224 2160425.4255784233 3.5677272577965504 0.1711233750220791
0.2536445823822077 15.277274047659027 1723199.2177615769 3.784830832462363 0.17388831298552507
0.2660404460186225 14.981274713532956 1382965.0934067927 4.011425086619889 0.1766669463400221
0.2788170603545988 14.723458190987419 1116483.5153952662 4.247765763596032 0.17945794973022816
0.2919717073937854 14.498372953333972 905886.5866824947 4.494478180034587 0.18226789180319886
0.30550828301715915 14.301171279567457 738601.3925082983 4.751718171216072 0.18509248332808684
0.319425206480662 14.128085405113396 605095.153087614 5.020167685458497 0.18793833564970652
0.33372198628421157 13.97595191919678 497643.73092305526 5.300051204676759 0.1908020800950627
0.34840595142475134 13.841985876728868 410980.9174065 5.5920969077126115 0.19369000436538691
0.3634689540091352 13.723956114335008 340643.42612515157 5.896472641002561 0.19659718186249492
0.37892398348880435 13.619953119347988 283281.50618426676 6.214042280657829 0.19953128891956484
0.3947564024787536 13.528408874361435 236384.47705736218 6.545062356282278 0.20248848801200114
0.41098265243040516 13.447827044792419 197843.53532880463 6.890237084179358 0.20547252090251453
0.4275921662767172 13.377012785286688 166063.3335631288 7.250270832732573 0.20848644723030818
0.4445882167198678 13.314894053155891 139783.86777743723 7.625421405804803 0.21152579474732483
0.46196990502901863 13.260536285650327 117970.63410541388 8.016640181454639 0.21459676175539383
0.47973635398026837 13.213134059778334 99808.8008020444 8.424631186815738 0.21770097854532527
0.49789429072945174 13.171950025387229 84632.9631385407 8.84983382166803 0.22083589147368465
0.5164331897148703 13.136375871867878 71930.57105987809 9.293124364936892 0.22400494999998793
0.5353529834777904 13.105820224421093 61268.19937002681 9.755386401154462 0.22721105394179314
0.5546609381120987 13.079802362685745 52298.513361243684 10.237429658569217 0.23045555446011948
0.5743444796628354 13.05782019776762 44322.45369280018 10.73972293977855 0.23373511749667952
0.5944018253805046 13.039509107529094 38321.95318708767 11.263515764736447 0.237055991104555
0.6148408034612968 13.024490365099838 32897.784175960616 11.809743665500744 0.24041976197229828
0.6356461699472676 13.012419684011485 28288.163996425388 12.379385833140232 0.2438280633837806
0.6568175126917981 13.00300560330171 24367.314492728274 12.973128202337127 0.24727881056405032
0.6783504377436136 12.995986127781697 21025.107797831806 13.5923038323967 0.25077685834088986
0.7002394106368882 12.991054964271925 18169.542946897636 14.238107695593607 0.25432481060794176
0.7224755773210084 12.987991012429447 15726.104613459318 14.911729722286845 0.2579246524493688
0.745064164457409 12.986639258856735 13631.83152280238 15.614194461689063 0.26157622808956354
0.7679856558024445 12.986757775277324 11834.313726307399 16.34677855505852 0.26528153607563687
0.7912326352907953 12.988137628340093 10287.063034973507 17.111093395802367 0.2690452173781767
0.8148064000201045 12.990677615109325 8954.784205283075 17.908594348730606 0.27286970520418474
0.8386918231388075 12.99413587160961 7806.263041495624 18.740637233070476 0.27675599435585163
0.8628716447267724 12.998413614910293 6812.733488199318 19.608585811735086 0.28070473704131754
0.8873560289520246 13.00336809536207 5954.356538033936 20.514517107713555 0.28472221080557
0.9121131017804094 13.008853910800157 5210.1860402249595 21.460225665734136 0.28881142982473706
0.9371344271554899 13.014750564157806 4564.498701179086 22.447183394732665 0.2929722161002696
0.962419022639544 13.020956961245194 4003.8028920115485 23.477440608305738 0.29720856745330165
0.9879407462124793 13.027339217564013 3515.861858476565 24.55340829231352 0.3015264882749651
1.0136847472969306 13.033799752376053 3091.472699031523 25.677014038116624 0.3059274992497477
1.0396494591242453 13.040255507961993 2720.8308811918037 26.850249164020944 0.3104130812888867
1.0658034225255406 13.046576538122547 2397.700127115257 28.07619676065246 0.31499186275885754
1.0921352842715888 13.052715593759856 2115.264382265576 29.356893520265768 0.31966416151201726
1.1186337738684662 13.05854575590433 1867.9711000961413 30.69513263150491 0.3244349173305346
1.1452664214879082 13.064004816551705 1651.72135961825 32.09427630587888 0.329311931942334
1.1720302003529424 13.06901528241777 1461.709905023803 33.55630527562589 0.3342931589674629
1.1988865899446328 13.073477423526871 1295.0986443820425 35.08574394990177 0.33939204194984995
1.225835285576024 13.077338034703336 1148.7709946943205 36.68459280509282 0.34460520146259127
1.2528320445841932 13.080501856383043 1019.9491223878791 38.35792722420825 0.3499472161686138
1.2798753911122507 13.082942367450501 906.4706069531709 40.10801205036002 0.35541480645178986
1.3069199026766998 13.08452237733986 806.6219870687222 41.94027290900003 0.36102226343174354
1.3339581567883305 13.085236359502009 715.4890478430542 43.85824037723194 0.36677177789611237
1.3609666324793999 13.085032691366782 640.468767558967 45.866559262161346 0.37267085819633367
1.3878981415677956 13.083770832133577 571.6602281327408 47.97058588421054 0.37872958662989326
1.4147485262004373 13.08145937158743 510.70803662618465 50.175103284505674 0.38495374530893883
1.4414802672536622 13.07802240215463 456.7676526853126 52.48528328496992 0.3913500529877251
1.4680767369014076 13.073421936392943 408.9121785014301 54.90756754878492 0.3979303292474241
1.4944851868375055 13.067555479232523 366.43440704430026 57.4481472722397 0.4047036373391444
1.5206978443238393 13.060406352996175 328.75369493078813 60.11365187966992 0.41167975078435576
1.5466813123722645 13.051916767770217 295.21950192873294 62.91118847455483 0.4188692118597787
1.5714094594888122 13.041890466349834 266.3847350027947 65.89680041741369 0.5874324858706321
1.5843150695108565 13.023561543194134 250.12498859338845 69.64753402770768 1.0122476508927405
1.5870468789524557 12.992105247216895 241.86923018374185 74.28672740673875 1.4015530386133954
