M[M_sun], R[km], Lambda[1], P_c[MeV/fm^3], rho_c[fm^-3]
0.24162668629717493 15.618656898711224 2160425.4255784233 3.5677272577965504 0.1711233750220791
0.25364085534708264 15.277364964246676 1723267.4840125414 3.784779056863725 0.17388766762766542
0.26603474914323705 14.981386661413843 1383001.511512735 4.01131624445584 0.17666563104670385
0.2788076535127367 14.723681509962733 1116529.6481737993 4.24759617305844 0.1794559827355596
0.29195972759485506 14.498556592064302 906044.9597902847 4.494243391447663 0.18226527737779186
0.3054926612051153 14.301383042445936 738801.6408603431 4.751410213014008 0.1850891567917575
0.31940504615358 14.128338953800501 605233.0686518232 5.019784289685838 0.187934357770588
0.33370012968906027 13.976141590230784 497794.2494959559 5.2995822782890185 0.19079735878442772
0.34837707107529725 13.842239185551012 411126.0539650405 5.591541280475972 0.19368462851902463
0.363438024524454 13.724160761049845 340755.37836495094 5.89581783084661 0.19659103174693762
0.37888792931001597 13.620174928331668 283410.05152867595 6.213280364299594 0.19952434115978473
0.39471570693685226 13.528621251996727 236483.3294449508 6.5441941253424325 0.20248087479958124
0.4109365558447044 13.448066518163621 197949.04948256945 6.889245778689142 0.20546407852897464
0.42754056450190625 13.377237996788802 166151.4324345844 7.249147151450831 0.20847715130303918
0.44453177960746126 13.315071672214843 139868.04259402494 7.624168454981505 0.21151582045312664
0.4619081932362945 13.260714228957495 118038.51004156772 8.015236108219401 0.21458590011377482
0.47966885361860173 13.21328527877931 99861.94736874681 8.423065043694631 0.2176892033384825
0.49782075651417346 13.172111380766696 84690.0682212835 8.848111383691943 0.22082342028679666
0.516353680345493 13.136525511507799 71977.79292651529 9.291217759800734 0.2239915273809664
0.5352676744443823 13.105944769314737 61311.26712225568 9.753282703126143 0.227196650911539
0.5545701291075007 13.079907101889361 52333.742392370455 10.235115156563655 0.2304401407796526
0.5742438693224639 13.057946158599082 44758.621203420844 10.737207690509223 0.23371896881724374
0.59429773957747 13.039618184570234 38353.34764779375 11.260761945558599 0.23703878519249785
0.6147290367002936 13.024561288410487 32923.36478110265 11.806735010168614 0.24040146432804838
0.6355258429298983 13.01247121505333 28313.754962690804 12.376105060683615 0.24380863768662192
0.6566917155496258 13.003071356714088 24388.272980165148 12.969590378450178 0.2472585898134655
0.6782178806405055 12.996016768462106 20881.45200093747 13.588458723582715 0.2507554498051799
0.7000997950222697 12.99108840489202 18185.946609712835 14.233934687602867 0.2543021718359283
0.7223285801156509 12.988007175815156 15742.117366646089 14.907206876473403 0.2579007384586535
0.7449098825001774 12.986644386795492 13644.655579229664 15.609342555512686 0.26155142836358647
0.767823583834454 12.986747126004596 11845.019485622095 16.341531889823568 0.2652553827653497
0.79106102580087 12.988124089773704 10228.456564483862 17.1054256429787 0.2690176570154574
0.8146294177936316 12.990642653250196 8963.865415568871 17.90247743438029 0.2728406808829728
0.8385066077940443 12.994097268595668 7813.770523452882 18.734098286766585 0.276725951280927
0.8626805668161992 12.998378934885507 6820.572546679519 19.60153982012352 0.2806731261206308
0.8871488638838032 13.00331498842067 5960.885985133454 20.50693016313402 0.2846889636380481
0.911902364141811 13.008808731323091 5215.768024286951 21.452061538801047 0.2887764733974345
0.9369160300665286 13.014691538329352 4569.504243568638 22.438476091921885 0.29293605092158
0.9621877757075272 13.020891235620208 4008.26738899971 23.468080871575456 0.2971705547813912
0.9877061714688793 13.027286283786705 3519.929537794055 24.54335207241192 0.3014865396872078
1.0134412558228423 13.033744133172684 3094.925761873688 25.666300258228322 0.30588615270980124
1.0393992850354616 13.0402007229294 2724.1984279719895 26.8387468619261 0.3103696276627867
1.0655464925402642 13.046534224582988 2400.6357066183004 28.063852102305464 0.31494619449976313
1.0918693304976343 13.052647213450285 2117.9778369126343 29.343750253350898 0.31961685382113075
1.1183608143366874 13.058490557406952 1870.5732467824564 30.681033859144073 0.32438518299745406
1.1449859960684432 13.063955357488805 1653.822405836659 32.07926803899528 0.32926036501557676
1.171742280639294 13.068964025711475 1463.6737945894415 33.5402114930308 0.33423892126077903
1.1985915766696178 13.07343168236027 1296.8301938556292 35.06848870443958 0.3393349835310141
1.2255329625206834 13.077299603254117 1150.2779083366452 36.66622616466203 0.34454595352365636
1.252521722314073 13.080470928112824 1021.3369584199897 38.33827112940124 0.3498850396258601
1.279558454593432 13.082914483885245 903.8718629485579 40.08705136581057 0.3553499610963061
1.3065966660549002 13.084513371301895 807.7269241950021 41.917954232305 0.3609547906908298
1.3336281626743796 13.085234411926113 719.3804918572885 43.83431351768683 0.36670065489548376
1.3606320075084033 13.085038501410274 641.3608247070073 45.841074348040564 0.3725967515279343
1.3875587394731164 13.083793452466324 572.4702603714667 47.94343407878123 0.37865230382684795
1.4144105235247455 13.081514614204997 511.42045838949923 50.14598690828911 0.384872158014089
1.4411378106519892 13.07809524085163 457.42008348926896 52.45424855292578 0.3912648432412412
1.4677213429865348 13.073492868708298 409.50160668664284 54.87447706482549 0.3978412556157991
1.49412740923106 13.067642565706945 366.9773271829402 57.412852512108486 0.40461043972669497
1.5203368285164363 13.060513063745004 329.2402686712573 60.07599219471506 0.4115821489008502
1.5463175701837302 13.052045185344062 295.65584231964715 62.87098999610853 0.4187669035362121
1.5720323064444133 13.042182159924012 265.8001078247224 65.8054595012942 0.4261760541938761
1.5974544434814748 13.030877339819556 239.22152077891874 68.88758126330379 0.43382185000632306
1.6225413009160716 13.018078950587446 215.50845833720336 72.12615464779635 0.4417175130270164
1.6472929271241905 13.003762323178925 194.34590428335466 75.5306547392781 0.4498773192221471
1.6708177418340964 12.987774847707511 175.97924170528464 79.16526233987915 0.5614554754804408
1.689706290947806 12.96745182305276 161.67898125636862 83.22212425125252 0.7253100928382127
1.7043040795779547 12.940762294849334 150.226599692007 87.73724284121342 0.8858274716440716
1.7151946662261792 12.907251887590178 140.77755294582278 92.73030390161696 1.0434666389779383
1.7229618533721611 12.867006733052662 132.79230324597515 98.22301166810495 1.198708516258723
1.7280239948674394 12.820126251271551 125.84832294346668 104.2389564076817 1.3520610166043476
1.7307798519546718 12.766996485569697 119.70855316081787 110.8038086121682 1.5042129309289838
1.7315628300875245 12.707940102383102 114.17493394930538 117.94642179369878 1.6557043055592697
