M[M_sun], R[km], Lambda[1], P_c[MeV/fm^3], rho_c[fm^-3]
0.24162668629717493 15.618656898711224 2160425.4255784233 3.5677272577965504 0.1711233750220791
0.25363744166695745 15.277444647545693 1723341.7418530735 3.7847131690691884 0.17388684636809185
0.26602689655277006 14.981565459956652 1383319.1103255996 4.011177738824472 0.1766639572878892
0.27879636265685215 14.723869600362828 1116771.6316048498 4.247380367499075 0.179453479716283
0.2919436798301546 14.498815223979548 906230.3913136637 4.493944626958073 0.18226195056586067
0.3054737664140499 14.301587966803664 738956.1970762976 4.7510183496813525 0.1850849239198824
0.3193798866463605 14.128621982303084 605401.5866198522 5.0192964450573045 0.18792929619427626
0.33366854744367996 13.976479293775471 498050.18566469266 5.298985614108181 0.19079135136617162
0.34834273464507365 13.842475726276877 411281.9360853732 5.5908343112480345 0.1936777883972638
0.3633965867674871 13.724468075872272 340932.58306947676 5.894984679920074 0.19658320661712206
0.37884127195084627 13.62045879765693 283551.8762751852 6.212310955565323 0.1995155013193723
0.39466327992715616 13.528934751351526 236643.18846555083 6.543089469501255 0.20247118846017106
0.4108786853163966 13.448323399943387 198071.19028590896 6.887984558912933 0.2054533374521101
0.4274755072389209 13.37747518735796 166279.3665423019 7.2477175401156115 0.2084653244948409
0.4444608546211778 13.31531612891961 139963.21449690787 7.622574407256242 0.21150313080826424
0.4618271503400627 13.260967434033448 118125.04898610352 8.013449831370176 0.21457208181820325
0.4795830385056569 13.213500378238129 99941.81500801249 8.421072617655778 0.21767422308003082
0.49772823191203774 13.172301386730567 84754.19132458241 8.845920158023256 0.2208075548767167
0.5162537288393176 13.13669777071728 72045.20151710622 9.288792288526613 0.2239744519119861
0.5351593094531706 13.106105920327142 61367.12683130795 9.750606551817814 0.22717832856311276
0.554453096503012 13.080064603114076 52383.21831397703 10.232170892651903 0.2304205331305614
0.574119645824391 13.05804184702488 44398.24580180699 10.734008108396287 0.23369842650897218
0.5941687797797242 13.03970780305767 38057.30843875462 11.257258949638915 0.23701689841060042
0.6145881970294358 13.024652001049489 32956.7593855291 11.802907920464005 0.24037818923728616
0.635374771829552 13.012553088129913 28343.92144871241 12.371931907642619 0.24378392813780583
0.6565287625640233 13.003107240382036 24415.88255925647 12.965090324922858 0.24723286935283711
0.6780505572447326 12.996050845938116 21068.157214473333 13.583567898411067 0.2507282190009546
0.699923366558187 12.991115876061954 18071.521768688595 14.228626885183699 0.2542733767487569
0.7221414448113652 12.988030244517892 15760.12464517521 14.901454208203146 0.25787032193302395
0.7447123866058923 12.986655479136457 13661.20772525093 15.603171444812773 0.26151988573914803
0.7676177994157819 12.986753675061076 11860.107342936442 16.334858810105793 0.2652221191366228
0.790846180990497 12.98810857045733 10310.896353343178 17.098217127235518 0.2689826044444065
0.8144042308290297 12.990614974959449 8976.353344893225 17.894697797773023 0.272803767063542
0.8382705169639437 12.994063355478382 7824.436637421155 18.725782025709425 0.27668774236431837
0.8624338131562111 12.998331792077302 6830.062216744411 19.59257886327826 0.28063292395864586
0.8868927036718672 13.003263485973353 5969.48379990562 20.497281413134647 0.2846466813194885
0.9116356519839568 13.008751565883994 5223.469933260974 21.441678948402643 0.28873201815201166
0.936639855010678 13.014624354391861 4576.473462001188 22.427402895735852 0.29289005916874505
0.9618994942081466 13.02082531410383 4014.180269115507 23.456178192444884 0.2971222144648114
0.9874081960585924 13.027214583637248 3525.3614269571367 24.53056392782352 0.30143573845957533
1.013135486955673 13.033669812740783 3099.572029877024 25.65267612871759 0.3058335745701601
1.0390812718983233 13.040113135740897 2728.48968424947 26.824120295818155 0.31031437112983
1.0652190951977019 13.046453013097315 2404.4443052434767 28.04815468626772 0.3148881229320799
1.0915305576788732 13.052574906504482 2121.285432062502 29.327037595455092 0.3195566985143301
1.1180123248092584 13.058416218551512 1873.5786627520743 30.663106561672326 0.3243219432939625
1.1446272741380366 13.063876750079308 1656.5432701701732 32.06005637132691 0.32919396667950096
1.1713748869227618 13.068897343435731 1466.1193096095265 33.5197481886193 0.3341699578150573
1.198219147218474 13.073377315699762 1299.01301579088 35.04654904827067 0.33926243503591774
1.2251461577585168 13.07724694205968 1152.2627921706212 36.6428737880164 0.3444706223714678
1.2521276921089775 13.080424534446323 1023.0567664136354 38.31323754956494 0.34980573873284504
1.2791562216718373 13.082888085840422 909.4043050745933 40.06040180127296 0.355267516246671
1.3061863134141876 13.084490297280421 809.1126385210888 41.889578606753325 0.3608690068758986
1.3332081149053545 13.085226729635242 720.662147257989 43.803893941961555 0.36661023218458216
1.3602064045442634 13.085047659251531 642.5906409609784 45.80867451952094 0.3725025372277833
1.387125789675405 13.083824639237589 573.4809699076801 47.90891571599358 0.37855405342358434
1.4139633260598299 13.081543636120024 512.425273806492 50.108971818437276 0.384768437653177
1.440692092609733 13.078161420858885 458.2501254600087 52.414795454749154 0.39115651981544663
1.4672670030519923 13.07356909976089 410.2989818080105 54.83241140662362 0.3977280224292633
1.4936740658068435 13.06775313815371 367.67271064669444 57.367985610257456 0.40449196638631885
1.5198781959169343 13.060653107436062 329.8734950651227 60.02811996909573 0.41145807937149403
1.5458563139970327 13.052209625215248 296.23515115152435 62.81989157942375 0.4186368540032451
1.571567567333266 13.04237702406076 266.31332413165126 65.75089570823852 0.42603961071241764
1.5969828544615723 13.031090110366813 239.65992433627795 68.82929290384372 0.4336785659140943
1.6220769467342417 13.018325355892618 215.92518074767193 72.06386066688133 0.4415669060949599
1.646825366507614 13.00404711545372 194.7265561824594 75.46405016311635 0.44971886851387455
1.671179775607541 12.988177321575888 175.80705214953738 79.04004852002065 0.45814982929693643
1.6951027297290575 12.970668806910911 158.8905986980284 82.80171661585157 0.4668717578233983
1.7185992289452572 12.951542326041928 143.7488902434415 86.76145220746537 0.47590496407731847
1.741598123776764 12.930693470446121 130.21332247801428 90.93170279432773 0.4852674334967772
1.7640811294168497 12.908106243506198 118.07190592961504 95.32522653408782 0.49497591693406295
1.7860119192965633 12.88373778936362 107.18187183927047 99.95694488195281 0.5050530231751704
1.8073491985385104 12.857526663347954 97.40876363262566 104.8426616278583 0.5155217726036403
1.8280925939572983 12.82952731028394 88.62855067048243 109.99820083522224 0.5264022117090477
1.8481774362946164 12.79961713089592 80.73421785640879 115.4422586498083 0.537721916606393
1.867578646207899 12.767797512347967 73.63162633788224 121.19453758991993 0.5495085128239935
1.8862670720841768 12.73403907008074 67.23153113757479 127.27625255051737 0.5617912661464074
1.9041980281136868 12.698279846496964 61.46563036127018 133.71052697619214 0.5746021281080728
1.9213623003164406 12.660565093713616 56.26107436393218 140.521390091967 0.5879717924856519
1.9377098006817066 12.620803868431112 51.56131367217117 147.73705763073815 0.6019407624887577
1.953227196447425 12.579038188616323 47.32475498857082 155.38687429266412 0.6165480127391245
1.9678831347007197 12.53525534520994 43.484376069144886 163.50261648947446 0.6318350677760991
1.9816269373343505 12.489355596450212 40.010693534063584 172.1192850742728 0.6478480586539763
1.9944583121798127 12.441420436789207 36.86467902397714 181.27551703902998 0.6646383467806835
2.0063100963437233 12.391319409308634 34.013974727956466 191.01291587253414 0.6822594797310579
2.0171952613984274 12.339165720859105 31.432722894529647 201.3772563553008 0.7007703516801903
2.0270700995919135 12.284898229981769 29.085646511340627 212.4189474309363 0.7202357149245525
2.0359248294430397 12.22855847893934 26.95682467937355 224.1920641515198 0.7407218985662971
2.043711725739189 12.170088065472374 25.020198698038744 236.758395026353 0.7623088015418249
2.050416706186789 12.109508632898134 23.26096672839523 250.1830322476203 0.7850740351247539
2.0560303128811728 12.046859790053794 21.659627552051298 264.54028531234235 0.8091106053975238
2.0605251767843815 11.982141239194469 20.20496077202803 279.9109131665733 0.8345160335430166
2.0638881735617027 11.915389925577946 18.878049770668987 296.38437204457483 0.86139756815408
2.066100265439039 11.846615580677156 17.670708154428432 314.05879226362663 0.8898696625808719
2.0671472049759254 11.775853368927754 16.571321529394186 333.0451720939679 0.920064929000018
