M[M_sun], R[km], Lambda[1], P_c[MeV/fm^3], rho_c[fm^-3]
0.24162668629717493 15.618656898711224 2160425.4255784233 3.5677272577965504 0.1711233750220791
0.2536412911737988 15.277384964658006 1723195.1073564715 3.7847877084300956 0.17388777546526657
0.26604084233098707 14.981171146976152 1383070.301175633 4.011334431548219 0.17666585082698197
0.27880886917247155 14.723650653735968 1116586.1612924398 4.24762451074098 0.1794563114099731
0.29196334670852014 14.498469642813209 905959.8222596503 4.494282623081148 0.1822657142311359
0.3054949803423794 14.301350975300728 738751.6527522991 4.751461670413403 0.1850897126298789
0.31940829878722904 14.128306002172026 605218.5055256287 5.0198483516440495 0.18793502243813012
0.33370442439646314 13.976086855002562 497796.68586166186 5.29966063104832 0.19079814766670317
0.34838308392664935 13.842129891919907 411084.62434525305 5.591634119401118 0.19368552676116454
0.3634431189883372 13.724124981836656 340736.42787023616 5.895927241293423 0.1965920593530078
0.37889403342952466 13.62013055328208 283378.98948825634 6.2134076699014695 0.19952550203358793
0.39472269770488966 13.528616815419284 236479.13244435316 6.544339193662159 0.20248214685276755
0.41094427358603625 13.44803064620187 197932.1576893651 6.889411409728789 0.20546548911241264
0.4275494138953803 13.37718272934708 166142.80716668055 7.2493348989994555 0.20847870449039335
0.44454158332975 13.315035977830439 139855.14591875617 7.624377799883814 0.21151748697315736
0.4619187026484149 13.260709168790784 118027.80502086325 8.015470701240453 0.21458771488045297
0.4796794842413227 13.21327048595704 99849.66126928209 8.423326713584471 0.21769117073024627
0.4978326389778485 13.172095416541804 84677.9283305894 8.848399165435922 0.22082550394958275
0.5163671406985326 13.136495805059827 71968.49909396027 9.291536309664503 0.2239937699918666
0.5352819624767092 13.105923396162979 61304.61155320725 9.753634180272277 0.22719905731012913
0.5545840706240731 13.079906455644673 52325.46701514278 10.235501851323924 0.23044271601590588
0.5742619373912795 13.05792673173803 44753.37914902642 10.737627922597593 0.23372166683742268
0.5943157798382407 13.03958134041796 38347.01450210908 11.261222033299127 0.23704165982902656
0.6147474957521528 13.024553531039176 32919.282237786276 11.807237670651554 0.24040452134245513
0.635545654771446 13.012485557115799 28078.74267797598 12.376653180473708 0.24381188314457117
0.6567126663055893 13.003050773710052 24384.54554231829 12.970181440553286 0.24726196808207043
0.6782400215327145 12.99600064122001 21040.093243552197 13.589101119274165 0.25075902649228177
0.700122743291755 12.991083480726333 18183.361686979737 14.234631860152174 0.2543059540310338
0.7223532028505798 12.988010839018697 15739.288438760728 14.90796249033875 0.2579047336739904
0.7449354107657967 12.986657671711882 13642.718371784216 15.610153139664932 0.261555571532091
0.7678514745925767 12.986748401410344 11843.571567053832 16.3424084185267 0.26525975204109387
0.7910910049838707 12.9881265968595 10295.871552900126 17.10637251384335 0.2690222613278348
0.8146605144361329 12.990640422992495 8962.494386757973 17.90349933651064 0.2728455297355118
0.8385374418133189 12.994111021455796 7812.323997724283 18.73519068821666 0.27673097030036636
0.8627134526823873 12.998370299204714 6819.446886132042 19.602716920929545 0.2806784070295888
0.8871915247462457 13.003320917234351 5954.591882808885 20.508197626657523 0.2846945178597314
0.9119379488421736 13.008809236611292 5214.968972242018 21.45342541613296 0.28878231312520863
0.9369523101368248 13.014700967875559 4568.594452077958 22.439930702634932 0.29294209254635223
0.962226292661046 13.020902684060212 4007.5058278020665 23.46964446466067 0.29717690499749905
0.9877455113221568 13.027298722748125 3519.300095712158 24.545032004868006 0.3014932132613544
1.013482060436692 13.033752131994206 3094.3386085103957 25.668090028584043 0.30589305977829423
1.0394407129990078 13.040205731277366 2723.6469368017765 26.840668343694666 0.31037688667490804
1.0655896941607417 13.046537408005191 2400.0793679345593 28.065914286489416 0.314953823415766
1.0919125744097562 13.052670215306179 2117.3957679550454 29.345945832893225 0.31962475655939043
1.118407033160352 13.058499115307463 1870.1710204658186 30.68338903840276 0.32439349104490084
1.1450325930508125 13.063962224310863 1653.3595402692727 32.08177513307582 0.3292689791438987
1.1717903129578335 13.068973374940393 1463.4234830570313 33.54289989975816 0.3342479814686366
1.198640855594494 13.073439355912027 1296.52066211938 35.0713711074337 0.33934451485629447
1.2255837108971697 13.07730567788254 1150.0237654075447 36.66929420172201 0.34455585053628995
1.2525742260538868 13.080469256295498 1021.1175581725183 38.341560087091615 0.349895458322812
1.2796111264635446 13.082922982256566 907.5214702510556 40.090552672986455 0.35536079297099715
1.3066505434811746 13.084515213863082 807.5272336739264 41.92168235663748 0.36096606137549525
1.3336841544000106 13.085233029527567 719.222664293848 43.838310241562304 0.36671253522579506
1.3606877309224874 13.085037952634421 641.2366725525349 45.845331299686215 0.3726091301650567
1.3876149266477416 13.0837904349126 572.3411784198317 47.94796943391909 0.37866521291161476
1.4144675945587206 13.081509401081291 511.306864504187 50.150850378346306 0.38488578599315476
1.441196170498445 13.078086688018587 457.29509605029347 52.459432419971236 0.3912790761979209
1.4677809180413228 13.073484897497622 409.40185552408855 54.88000427323877 0.39785613386680085
1.494186957438542 13.067625013020264 366.89200052046635 57.418747864341434 0.40462600670464344
1.5203972115149647 13.060497339797932 329.154383982195 60.08228251760445 0.41159845141008783
1.5463779335526557 13.052025139927252 295.57845692821473 62.87770432377986 0.4187839920339484
1.5720936738967075 13.042158112807485 265.72896211199 65.8126292765026 0.4261939830993998
1.5975165414796615 13.030848418953521 239.16033581382553 68.8952405592844 0.43384067804131765
1.6226032131907813 13.018047793799292 215.45226514435262 72.13434041295004 0.4417373035903778
1.6473548000602543 13.003724828157136 194.2961851991122 75.53940706730755 0.4498981408031137
1.6717043332959631 12.987809340567024 175.41331866370297 79.12054179222847 0.45833813119397465
1.6956425483351152 12.970283679563945 158.52794346156026 82.88757295434104 0.46706905543919286
1.719107919186157 12.951056564506855 143.42974152535191 86.85339079357911 0.4761131597402211
1.7421109320291441 12.930177909524241 129.91739512017105 91.02976191190817 0.48548557893912997
1.7645970064309582 12.907557547652086 117.7984869138955 95.4303499290001 0.49520658113541394
1.7865230869778856 12.88313758794605 106.93089371077293 100.06922406064913 0.5052953167717028
1.8078639473974845 12.856905546284302 97.18496266609706 104.96267830289138 0.5157766282646378
1.8285885523712126 12.828821066783783 88.42223115955646 110.12709673735007 0.5266725268369874
1.8486630677772171 12.798858413526764 80.54883395461107 115.58023581735388 0.538006929822282
1.86805404916921 12.766979716998225 73.46034524861984 121.34235414418534 0.549809413159754
1.886730045890768 12.733160747374866 67.0765740114165 127.43473759885288 0.5621093443738424
1.9046599169509595 12.697371545097091 61.3215234003611 133.88005492123034 0.5749369052743487
1.921808378530886 12.659589515851835 56.133412994669584 140.70341689249364 0.5883264499143716
1.9381365403606508 12.619760751024899 51.44567053111051 147.93272131637016 0.6023171313229463
1.9536316778730973 12.57790989371521 47.211168774207756 155.59672720787893 0.6169457050200295
1.9682602083764917 12.534030530957121 43.383597542316174 163.72858783852985 0.6322581842198195
1.9819874731546236 12.488066966788201 39.91980993573611 172.362129576556 0.6482964444753737
1.9947874191033093 12.440024981905463 36.782853396571035 181.53677302122028 0.6651142281747624
2.006628632304781 12.38988497398687 33.94125363837348 191.2942781003551 0.6827652879824441
2.0174932644800605 12.337667068490859 31.359752020908832 201.6805942387357 0.7013087465014725
2.027342550031778 12.283322888756446 29.02178566241046 212.74593414075548 0.720808328114564
2.036166107416948 12.22689303303161 26.897064298531834 224.54497381163247 0.7413319113153892
2.0439235705846936 12.168342783769896 24.966971508318142 237.13948357847244 0.7629588499593858
2.050598566519098 12.107675401084233 23.210393398398608 250.595543185577 0.7857694353226297
2.0561813738753085 12.044947684002105 21.61434660036572 264.98662837695366 0.8098533461890225
2.0606503508553784 11.98016565921 20.16173187905479 280.39447862715554 0.8353106071673143
2.063979029097098 11.913321406277747 18.839476881063437 296.90803677153696 0.8622459988425882
2.06615144576225 11.844449887749828 17.634965802748 314.62762537592806 0.890780252512804
2.067161840342063 11.77360116849461 16.53900526292575 333.662921112766 0.9210406142297662
