M[M_sun], R[km], Lambda[1], P_c[MeV/fm^3], rho_c[fm^-3]
0.24162668629717493 15.618656898711224 2160425.4255784233 3.5677272577965504 0.1711233750220791
0.25364451881416233 15.277264285564637 1723135.6206639213 3.7848297612525634 0.17388829963341168
0.26604033454222975 14.981265383931706 1383017.35844685 4.011422834711581 0.17666691912703922
0.2788171315486694 14.723456168747823 1116368.358480011 4.247762254791796 0.17945790903338668
0.29197147241543636 14.498399363660315 905874.2193571952 4.494473322248478 0.1822678377106231
0.30550787330649043 14.301199457995336 738657.4533935231 4.751711799489629 0.18509241450128064
0.31942419391503113 14.128124532944412 605029.499371134 5.020159752843201 0.18793825334576114
0.3337229081790921 13.975993153299628 497677.44720256625 5.300041502312265 0.19080198240835136
0.3484053754931008 13.841990736836207 410983.94310348213 5.592085411361449 0.19368989313502688
0.3634692919539191 13.723967146594239 340644.1972751887 5.896459092364069 0.196597054610815
0.378923031403561 13.619971470186911 283279.5548056985 6.214026515755986 0.1995311451626422
0.3947561080774268 13.528420534101857 236398.63431563723 6.545044391472075 0.20248833048488493
0.4109816029364311 13.447852688229856 197850.16820592122 6.890216572626569 0.20547234621752364
0.4275907333306992 13.377018811445886 166062.67607401867 7.25024758193771 0.20848625488244094
0.44458619948005046 13.314896220875578 139785.05485234197 7.6253954800186605 0.21152558836139693
0.4619687718530565 13.260557159551292 117970.61944700849 8.016611128437562 0.21459653700681838
0.4797350736523206 13.213114885742502 99801.5116296539 8.424598779991014 0.21770073489130726
0.49789259852956175 13.171957487829197 84634.22921862581 8.8497981805148 0.22083563341650697
0.5164317231342107 13.136384083491295 71930.72119527461 9.293084912628293 0.22400467225327583
0.5353509313236803 13.105826579696618 61269.11269621486 9.755342870162993 0.22721075590558323
0.5546589893938486 13.079785057181994 52299.72446863104 10.237381765109914 0.23045523550836383
0.5743424957129727 13.057822068991458 44322.75537052147 10.73967089194342 0.2337347833334556
0.5944000751822447 13.039508692287257 38322.346185217226 11.263458779741542 0.2370556350612756
0.6148382917478636 13.024487514243416 32897.76853464223 11.809681406666689 0.24041938333471066
0.6356432124005038 13.012427117180398 28287.837521437756 12.37931794278148 0.24382766139992876
0.6568150008417863 13.003026129495916 24367.860320161417 12.973054992219524 0.24727839212503933
0.6783473249395119 12.995972799580052 21024.796171676462 13.592224262835693 0.2507764153188921
0.700236540704939 12.99106356903798 18170.260316397827 14.238021339899444 0.25432434212408633
0.7224713489244613 12.988007397769161 15726.77732779272 14.911636126351986 0.25792415757237996
0.7450609617849288 12.9866540288546 13631.958513807529 15.614094055509035 0.26157571487977327
0.7679823854533929 12.986762764966265 11834.571332675307 16.34666997880636 0.26528099485025175
0.7912288505271748 12.9881399924414 10287.346406701487 17.110976104490085 0.2690446470302433
0.8148028449808319 12.990676717318854 8954.749383096607 17.908467761235308 0.27286910455557095
0.8386880708988582 12.994140245831323 7806.501400970748 18.740501910883005 0.27675537262041777
0.8628686135067998 12.99841431274711 6812.959028788276 19.60843999517725 0.2807040828543842
0.8873516778170888 13.003357248013694 5954.317717024054 20.5143600948869 0.28472152275101836
0.9121067076446495 13.008854862608375 5210.290564489254 21.46005670667213 0.2888107063909619
0.9371307321847252 13.014744494723308 4564.447882324036 22.447003193297608 0.2929714676460995
0.9624144371473924 13.020963153019565 4003.8238975312684 23.47724690287921 0.297207780758009
0.987936077936861 13.027338690194865 3515.9613868775623 24.553200171027818 0.30152566150789684
1.0136796445378586 13.03379914605363 3091.5609438684137 25.6767923066345 0.3059266435452551
1.0396443453846174 13.04025786094252 2720.9482453653886 26.850011111357283 0.31041218196878945
1.065796289350185 13.046587001775597 2397.7276083241695 28.07594127235033 0.31499091759653314
1.0921293354288182 13.052712653151561 2115.22204961118 29.35662150188803 0.31966318241287756
1.1186290155960028 13.058546766089655 1868.2706621901148 30.694840835088918 0.3244338879997692
1.1452605497573205 13.064001397195456 1651.803705094494 32.093965683862905 0.32931086467568216
1.1720252045480128 13.06901563759874 1461.7708230342987 33.55597218406134 0.3342920364145472
1.1988815162898978 13.073470262705191 1295.1479960172037 35.08538681647002 0.33939086100641025
1.2258286423648366 13.077339055681803 1148.8023738465956 36.68421266625653 0.3446039751935496
1.252824704373107 13.080497229347147 1015.5085815719949 38.35752253709946 0.3499459418477042
1.2798688825384956 13.082941822234119 906.5070248244601 40.10757821476647 0.3554134643093985
1.3069131415124233 13.084522107675562 806.6388943251177 41.93981096273806 0.36102086689820906
1.3339508293286015 13.085237541113672 718.4465852352162 43.85774514051852 0.3667703057964825
1.3609600498016805 13.085031123731929 640.4950451985186 45.86603177278366 0.37266932432887734
1.3878918810970653 13.083769313356479 571.6868709092527 47.970023888848864 0.37872798700967786
1.4147412402244992 13.081462534127192 510.73700524274244 50.1745006199549 0.38495205657645254
1.441473426999762 13.07802562047618 456.78731131569003 52.484640908043815 0.3913482892613639
1.4680691314744696 13.073423626238204 408.9318094158761 54.90688261477062 0.39792848552824034
1.4944779643542412 13.06755906681608 366.4580297870926 57.44741670598246 0.4047017082417187
1.5206896895979314 13.060407435541093 328.7598626281547 60.11287235493872 0.4116777305050546
1.5466737803770971 13.051919912345713 295.22785564862045 62.91035639135039 0.41886709414186984
1.5723899632396325 13.042036673766038 265.40992542892116 65.84749652757034 0.4262811729529299
1.5978148166711574 13.030705899133123 238.86567372316225 68.93248874540959 0.4339322413068745
1.6229012666051648 13.01787906418345 215.1807095661391 72.17414927471695 0.4418335486922529
1.6476539599000806 13.003537571439676 194.04982496594724 75.5819716489247 0.44999940093407204
1.672001978236099 12.987600094201328 175.18713896134273 79.16585167171294 0.4584438386244333
1.6959402659358167 12.970047435316493 158.3319830556635 82.93607013703377 0.4671805018237741
1.7194200617064714 12.950833544217113 143.24662996582003 86.90532489368663 0.47623076492490124
1.7423988565726098 12.929879117501313 129.75473768597226 91.08515454797875 0.48560880716509064
1.764883939541934 12.907238162357736 117.65157019013431 95.48973463685331 0.4953368844444048
1.7868104948499488 12.882797647335728 106.80302624207818 100.13265254572727 0.5054321926907345
1.8081479662744289 12.856539190932345 97.0620183806167 105.03047942722029 0.515920604094267
1.8288577764186436 12.828399594896256 88.3089760225505 110.19976067190409 0.5268246622520533
1.8489367292534729 12.798428031839022 80.44312463206026 115.65818749779426 0.5381679510950149
1.8683124756157472 12.766486135207547 73.37106041051037 121.4258668475511 0.5499794144198151
1.8869903527291394 12.732661687069509 66.99244749966286 127.52423776286166 0.5622889041720203
1.904912477640736 12.696845690152555 61.2427830085468 133.97581116245345 0.5751259578265722
1.9220531985320302 12.659021206642999 56.061178095193426 140.80626569200984 0.588526838487251
1.9383661515250454 12.619128667753126 51.37998382064641 148.04327847925157 0.6025297935263105
1.953860660748971 12.57728114197494 47.15224754237258 155.71530502035608 0.6171704218444801
1.9684759986128109 12.533345492536652 43.32978572171536 163.85604895004042 0.6324965013502928
1.982188863384181 12.487339412119045 39.870500104359124 172.49935766554808 0.6485498211374887
1.9949782103284681 12.439257304671997 36.736737919064915 181.6844096687458 0.6653831503753281
2.006812208178052 12.38909421783805 33.89363284529075 191.45328187058064 0.6830511309671419
2.017657805319218 12.336815552658917 31.319156474866553 201.85202252901146 0.7016130148067055
2.027492948414953 12.282425367358075 28.984513134205468 212.93052244606832 0.7211312543111412
2.0363010499722223 12.225955028212041 26.863925574368352 224.7444303228478 0.7416766766434111
2.0440441620167027 12.167353911860749 24.937011278896065 237.35477984294377 0.7633259498677611
2.0507011400544073 12.10664231608495 23.182677913440475 250.82853260337126 0.7861619372570302
2.0562731820304987 12.043890608842572 21.58914444371085 265.23891868086815 0.8102731719124939
2.060716098395872 11.979037088539839 20.136632414293697 280.6674089799709 0.8357584098596523
2.0640199393309064 11.912137361227826 18.817658909865454 297.20405462922747 0.8627256008128567
2.066178794173771 11.843229384527284 17.61474625917173 314.94918937682905 0.8912950132314753
2.0671704548044763 11.772330562314629 16.521138570206332 334.01215173849647 0.9215921961067619
