M[M_sun], R[km], Lambda[1], P_c[MeV/fm^3], rho_c[fm^-3]
0.24162668629717493 15.618656898711224 2160425.4255784233 3.5677272577965504 0.1711233750220791
0.25364373488655834 15.277278590740801 1723196.9189016917 3.784814850372821 0.17388811377648894
0.2660392511028894 14.981271472600922 1382992.4178718394 4.011391489000021 0.17666654033261397
0.2788140467818127 14.723551181606219 1116470.4086326582 4.247713413705793 0.179457342550391
0.2919674709241673 14.498465156819606 905906.690268701 4.4944057040901475 0.18226708476673673
0.30550413046837216 14.301212953822471 738649.9021482291 4.751623108228671 0.18509145646639247
0.31941946625795165 14.12815617213385 605112.3124316108 5.020049335085121 0.1879371077189037
0.3337170611332934 13.975959896543403 497705.6556367917 5.2999064509692015 0.19080062266541742
0.3483973540917588 13.842057439837662 411024.1410888555 5.59192538916981 0.19368834487630218
0.36345901719628665 13.724026289939601 340668.8732686032 5.896270504099426 0.19659528334992393
0.3789126438679602 13.6200460051801 283317.8371023021 6.213807079135258 0.19952914416488005
0.3947443484118369 13.528475975446963 236414.0785522038 6.544794334253188 0.20248613782088606
0.4109683170379906 13.447917532390358 197881.21797389726 6.889931067342158 0.20546991473471396
0.42757588391746365 13.377104763846937 166099.2811560797 7.249923949330545 0.2084835775528218
0.44457024448909843 13.31496772678957 139813.77144953219 7.625034614507758 0.2115227156398944
0.4619505376877337 13.26060064024346 117992.53265571086 8.016206735504893 0.21459340870054655
0.4797150703795415 13.213184112672048 99814.21892761397 8.424147706113187 0.2176973434463357
0.49787209967480933 13.172001063643163 84650.77960308682 8.849302088814916 0.22083204150063615
0.5164095771265041 13.136413140464159 71943.83911088438 9.292535774588888 0.22400080628724364
0.535326747344005 13.105862620236797 61282.52429036026 9.754736962334048 0.22720660753986058
0.5546325003480491 13.07983822520399 52306.538405500076 10.23671513778225 0.23045079603041374
0.5743139066879738 13.057868021218248 44733.94416891378 10.738946441582884 0.23373013213773433
0.5943680278359907 13.039550878024881 38332.36685521913 11.26266561137085 0.23705067933094212
0.6148061915448925 13.02452146000697 32904.14465161675 11.80881483443415 0.240414113129693
0.6356093137872209 13.012441845875518 28295.171782547477 12.378372988488838 0.24382206625544361
0.6567778472646238 13.00302724594466 24373.701626867663 12.972035995259057 0.24727256795627267
0.6783098754117812 12.995992218764032 21030.24811628105 13.591116752816198 0.25077024899982325
0.7001960334927194 12.991068514705688 18174.283951631867 14.236819378284729 0.2543178214236647
0.7224298731941334 12.987997997751114 15731.787099700745 14.910333393033438 0.25791726953025573
0.7450166852523054 12.98665437924393 13635.683961700333 15.612696535348876 0.2615685716837263
0.7679358876172128 12.98675987075705 11837.878708908082 16.345158745910204 0.2652734617332947
0.79117938525479 12.988144152587825 10290.29621554865 17.109343573969127 0.26903670858714107
0.8147531632805117 12.990655420731926 8957.486286771025 17.906705845318605 0.27286074439052926
0.8386348074226511 12.994127268159879 7808.5604755100385 18.738618424481317 0.2767467189749441
0.8628146066938548 12.998386874012448 6815.618935837005 19.606410447659197 0.28069497755463935
0.8872874548011209 13.003342485343303 5955.988749196896 20.512174717672178 0.28471194608921535
0.9120476388674923 13.008836902423143 5212.005824038633 21.457705062233835 0.2888006373304828
0.9370665219476061 13.014727463448319 4565.896786449003 22.44449507790477 0.29296105036266196
0.9623436153647139 13.020931016040151 4005.0759358314226 23.4745508405122 0.2971968312476584
0.9878684182738199 13.027322578062265 3517.143478746295 24.550303471041918 0.3015141542939809
1.0136097126307237 13.033785529264755 3092.3124811776756 25.673706181993104 0.3059147335959099
1.0395720434345608 13.040234573192388 2721.858412239328 26.846697832405674 0.3103996649975309
1.0657217449711536 13.04656747085559 2398.715367414642 28.072385329115043 0.3149777626162632
1.0920534274451728 13.052689419947537 2116.2208624532263 29.352835497541136 0.31964955512184723
1.118550115533299 13.058529798147033 1868.9280372572425 30.69077956719826 0.32441956161412133
1.1451796477870866 13.063982669242193 1652.394793457832 32.089642407868894 0.3292960103251923
1.1719422027962973 13.068996911010442 1462.3506090159105 33.55133618692114 0.33427641262619345
1.19879783616749 13.073459068101895 1295.6616370421161 35.08041621647845 0.3393744245797708
1.2257415378501857 13.07732888737054 1149.2721993561067 36.67892188806218 0.3445869079620895
1.2527358455880957 13.080494379783392 1020.360446379138 38.35188110213417 0.3499281530358754
1.2797768020602325 13.082936717468062 906.8462708331482 40.10154011583892 0.3553947844485152
1.3068189882263794 13.084521398332189 806.8892771838645 41.93338163652942 0.3610014300710417
1.3338556121302105 13.085237926893722 718.7493776894603 43.85085250142027 0.36674981730847206
1.360863394065996 13.08503378043081 640.7399937806654 45.8586902635494 0.3726479762172928
1.3877930676594101 13.083778209581467 571.9094699692652 47.96220215080796 0.3787057238183015
1.4146498760538424 13.081490003924879 510.92745682174785 50.166112882565464 0.3849285532119396
1.4413721916260107 13.07803914860653 456.97428344356473 52.47570048697455 0.391323742214794
1.4679663307827981 13.073443043616772 409.09607733988645 54.897349921620965 0.39790282523269893
1.4943749092112097 13.067582416419464 366.6134069196442 57.437248945579604 0.4046748597523117
1.5205859499453436 13.060440422643447 328.9026702836843 60.10202323822111 0.4116496130572512
1.5465689504014415 13.051958650592955 295.3480048395848 62.89877581960015 0.4188376206660692
1.5722853530083738 13.042079884941543 265.5183613514123 65.83513024480722 0.4262502495405641
1.5977088925419602 13.030755701098645 238.96907268487664 68.91927795536446 0.4338997666227905
1.6227960639738468 13.017940626311017 215.28131003981983 72.16003021836946 0.44179941332750666
1.6475480371452926 13.003603810224812 194.14307847173023 75.56687513808528 0.44996348669254693
1.6718965976813054 12.98767526385248 175.2723257437762 79.14978140492269 0.4584063468758674
1.6958340180580354 12.970130918324823 158.39550515807926 82.91886931873651 0.4671409743934239
1.7193151482176765 12.95092586364424 143.31151539584982 86.88690497592566 0.4761890528739446
1.7423002651668822 12.92999166253008 129.80443095113313 91.0655078637032 0.48556510052426205
1.7647808947965102 12.907347083418996 117.70401471562157 95.46867191640895 0.495290668132673
1.7867091138974178 12.882917893700307 106.85150822689486 100.11015544901585 0.5053836449320401
1.8080475991325613 12.856669125774996 97.10490378734973 105.0064312919785 0.5158695378286742
1.8287596697625548 12.828539881919284 88.34756348262806 110.1740342476331 0.5267708751423311
1.8488391014654824 12.798582709206938 80.47824036966459 115.63053875833323 0.538110838340135
1.8682274362734381 12.76668087847198 73.39555203634048 121.39624548667953 0.5499191161840983
1.8868984556623758 12.732838911347683 67.02339864101076 127.49251983192198 0.5622253128545596
1.904822616241465 12.697030932145962 61.26982112621559 133.94184670425918 0.575058901440226
1.9219662467139267 12.65922287246057 56.08703651994519 140.76978528230958 0.5884557607763562
1.938282218271427 12.619341799951378 51.40396168844567 148.00406364915247 0.6024543618495554
1.9537812327892825 12.577506757949452 47.173401095578285 155.67324498554038 0.6170907138682354
1.9683993197815965 12.53358920117017 43.348274684606054 163.8108888207366 0.6324121418534464
1.9821170779079664 12.487597961016892 39.888029469334484 172.45068161471713 0.6484599461317587
1.9949104423021884 12.439531011756909 36.7541796007342 181.6320412371693 0.6652877605510821
2.0067487392010266 12.38938006525805 33.90881909954486 191.3968809745149 0.6829497383998575
2.017598998426411 12.337117781800137 31.33473774124193 201.79121401577447 0.701505085693975
2.027439199972744 12.28274138520134 28.997979030698005 212.86504537829794 0.7210167060984455
2.0362531382606432 12.226286449745976 26.875569777224488 224.6736786320421 0.7415543806614946
2.0440019738044017 12.167703325548777 24.94726252367926 237.2784088348154 0.7631957302833419
2.050665112256041 12.107008916420334 23.19259157954327 250.7459904996551 0.786023050335978
2.0562409755853612 12.044274957205566 21.59687751451994 265.1494234008032 0.8101242465668996
2.0606918681866397 11.97943636753974 20.1452100758957 280.57062034305915 0.8355996539677591
2.0640042792417743 11.91255054206603 18.82348354226809 297.0990459670888 0.8625554679646228
2.0661695367099737 11.843662420696587 17.622066035123684 314.8351174385851 0.8911124064945701
2.067166881115112 11.772782442160846 16.5267589498302 333.88826413787183 0.9213965255376471
