M[M_sun], R[km], Lambda[1], P_c[MeV/fm^3], rho_c[fm^-3]
0.24162668629717493 15.618656898711224 2160425.4255784233 3.5677272577965504 0.1711233750220791
0.25364436031815163 15.277262047304 1723214.2805135376 3.784827493818047 0.1738882713709343
0.2660408653138576 14.981242042251328 1382905.3079710722 4.011418068090303 0.17666686152523414
0.2788166416545273 14.723479178753308 1116384.569695417 4.247754827699491 0.17945782289030834
0.2919710451008437 14.49839004877902 905903.8816965577 4.4944630397698235 0.18226772321283685
0.30550665609148997 14.301204147764201 738636.002329916 4.751698312460669 0.1850922688156275
0.31942378463189436 14.128103260843295 605079.5445652865 5.020142961891414 0.18793807913315563
0.3337230226243882 13.97592934004756 497671.1518026262 5.300020965347653 0.1908017756351947
0.3484041564503688 13.84200102334854 410990.3486823221 5.592061077084051 0.19368965769419894
0.3634671740360463 13.723962814384416 340655.36194824806 5.896430414035222 0.1965967852578815
0.37892183682820246 13.619970192007013 283288.5170573553 6.213993146293464 0.19953084087332346
0.3947541123662058 13.52842217622186 236398.4816977247 6.545006365497788 0.20248799704846102
0.41097967131323004 13.447868709694216 197857.46200585648 6.890173156006086 0.20547197646336451
0.42758765735168136 13.377046186926584 166070.43412864013 7.250198367215131 0.2084858477416537
0.4445840006955802 13.314904683057472 139795.16068739383 7.625340603196116 0.21152515150660378
0.4619660773227079 13.260552169552263 117975.6076571914 8.016549632273373 0.21459606128427086
0.4797313212930354 13.213155549194749 99806.12420693759 8.424530184900428 0.21770021915212023
0.4978898854044842 13.171957707583637 83761.79662519302 8.849722739400152 0.2208350871906034
0.5164285616692891 13.136387887786093 71934.37672842309 9.293001404540547 0.22400408435113198
0.5353475232283517 13.105832822211562 61272.008720396545 9.755250728839544 0.22721012505730967
0.5546548218411561 13.079790994330097 52300.93126259321 10.23728038987714 0.23045456038886017
0.5743378078975359 13.057830992622176 44727.72905974449 10.73956072326729 0.23373407601642887
0.5943958155553272 13.03953106247386 38322.21923221739 11.263338160735074 0.23705488143154044
0.6148332881224483 13.024518012140303 32899.42498981208 11.809549624698722 0.24041858188047208
0.6356378321746412 13.012427087555492 28288.9584421758 12.379174240758433 0.24382681052958718
0.6568094084770756 13.003020960568023 24368.803725341713 12.97290003004859 0.2472775064248155
0.6783419355041854 12.99597234524944 21025.387053237595 13.592055839864955 0.2507754775849143
0.700229824506172 12.991068201181303 18171.09813211857 14.237838552979516 0.2543233504961248
0.7224657917464138 12.988007483729044 15727.738917860104 14.911438014300547 0.2579231100792851
0.7450543045293323 12.986654467041925 13632.987092773606 15.613881528482594 0.2615746285825889
0.767975100897196 12.986764571588271 11835.095502674683 16.34644015853081 0.26527984925381903
0.791220570632023 12.988141547084075 10287.700256637863 17.110727837423653 0.2690434397915695
0.8147968621397881 12.99065890598166 8955.09520572147 17.90819981735286 0.27286783318100766
0.8386795206185802 12.99412514889372 7806.666331659802 18.740215478667565 0.27675405661259184
0.8628598012892912 12.99841615606467 6813.33458517862 19.608131350021296 0.28070269815822174
0.8873434588746286 13.003353216532329 5954.745918156578 20.51402775113 0.2847200663691449
0.9120993720908572 13.008847244975971 5210.628651573875 21.459699076912685 0.2888091751238969
0.9371202646847101 13.014740776390038 4564.726744710838 22.446621767363883 0.29296988341992175
0.9624045531013331 13.020953220108453 4003.9582334098322 23.47683689375078 0.29720611558911286
0.987926046599964 13.027342588061586 3516.0866712018533 24.552759648621635 0.3015239115215029
1.013668090653697 13.033793730229307 3091.6063050315847 25.676322976250034 0.30592483230891354
1.0396338588177274 13.040252099292843 2721.080753453263 26.849507234841866 0.310410278414047
1.0657858518935945 13.046578403286986 2397.875453040319 28.07540049081991 0.31498891701050225
1.0921176568048863 13.052707839679758 2115.493591163507 29.35604573208945 0.3196611099951271
1.11861653632728 13.058547076370198 1868.426826765852 30.69422320230294 0.32443170926009507
1.1452481973339803 13.063996988375887 1651.884800599245 32.09330820405041 0.3293086056398056
1.1720117611947096 13.069011477810069 1461.8728923738386 33.55526714436215 0.3342896603580683
1.1988703830488823 13.073471492042854 1295.204705676839 35.08463088889118 0.3393883613588395
1.225815346971678 13.077337002269346 1148.8893438831296 36.68340804460208 0.3446013796086451
1.2528123378833387 13.080500385929708 1020.008097132727 38.356665955708706 0.34994324455502224
1.2798558788153873 13.08293957490237 906.5705720640626 40.1066599367625 0.3554106234640311
1.3068980372859995 13.084521551520048 806.6099230428243 41.93883318478355 0.3610179109273199
1.333937924438141 13.085237517131834 718.4934728527917 43.85669689902759 0.36676718988066087
1.3609452900455568 13.085032028336645 640.5327836676026 45.8649152643531 0.3726660776740275
1.3878774133402298 13.083772682984144 571.7349005515339 47.96883434408223 0.3787246011812786
1.4147342711087587 13.081480413494184 510.7572980453625 50.17322499377888 0.3849484821313304
1.4414579633823899 13.0780248047239 456.80412470302497 52.48328122565922 0.39134455608296476
1.4680520607604572 13.073427794662203 408.9479633543985 54.90543285504887 0.39792458303580297
1.4944619117965283 13.06756074556724 366.4713454947865 57.44587036004557 0.4046976250364836
1.5206744006243034 13.060412102625376 328.7903149344931 60.11122238248739 0.4116734543030849
1.5466579374847882 13.051923810534355 295.239577868199 62.90859517263263 0.41886261170021005
1.5723745496176895 13.042042670526243 265.4258518107094 65.84561581050862 0.42627646998839663
1.597799283724478 13.030712564888793 238.88753974967213 68.93047958733798 0.4339273024066704
1.6228852799014093 13.017890474180929 215.1984139883969 72.1720019781216 0.4418283572155213
1.6476373677424583 13.003548880107331 194.06510258380246 75.5796756904961 0.44999393890338074
1.671986721412287 12.987615137045665 175.1940647096447 79.16340761409712 0.4584381366659774
1.6959236593905835 12.970060837727745 158.339968415583 82.93345413192458 0.4671744902516522
1.7194032546338047 12.950847781855483 143.2537203847339 86.90252347306456 0.47622442108551744
1.7423861480245715 12.929908944364534 129.76498130541563 91.0821665458306 0.48560215996015504
1.764867663007338 12.907255848654952 117.65846722795683 95.48653126527918 0.49532985553189307
1.7867957443690579 12.88281758174487 106.80991657008401 100.12923101535537 0.5054248091766308
1.8081333561066903 12.85655826245098 97.07046348317024 105.02682199374314 0.515912837526612
1.828842725078659 12.828421157164097 88.31613989957266 110.19584798046374 0.5268164818550578
1.8489221000771976 12.798451482294167 80.44781531505366 115.65398243140852 0.5381592648789189
1.868298389603921 12.766510853510551 73.37630424283232 121.42136175472538 0.5499702437017543
1.8869765025173344 12.732688788735619 66.9991557918585 127.51942447730728 0.5622792707620691
1.9048995079493454 12.696870843627897 61.24647554981725 133.97064550241424 0.5751157592097316
1.9220398105045626 12.659051153414199 56.06536850250553 140.80071736335125 0.5885160282331012
1.9383530569295666 12.619161131372897 51.38251179998093 148.03731425183983 0.6025183210381452
1.9538497835500628 12.577314215890842 47.156539468391266 155.70890804375944 0.6171582989334831
1.9684645591135328 12.533382847015414 43.33125214532472 163.84918045420122 0.632483670942984
1.9821787159538031 12.487378855822033 39.873741454687455 172.49195440004144 0.648536151817187
1.9949678518818772 12.43930114506307 36.73943127607049 181.6764447933231 0.6653686422443065
2.0068033336950077 12.38913758806855 33.89707439172683 191.44470365590655 0.6830357098077421
2.0176491967771133 12.336861036350289 31.32362144547321 201.84277391118187 0.7015965994223589
2.02748588977727 12.282473224686367 28.987232002919118 212.9205637348624 0.7211138321416973
2.036293954740207 12.226005270061028 26.865228004516844 224.73366932857627 0.7416580760086298
2.0440371061249625 12.167407730042255 24.937966796885917 237.34316413466604 0.7633061440181105
2.050695836966717 12.106698247623752 23.18439314113408 250.8159782493834 0.7861408130611026
2.0562682225182143 12.04394900731918 21.590498227296102 265.2253067160096 0.8102505208121308
2.060713270079955 11.97910022881241 20.13875169941888 280.65268766017465 0.8357342634688294
2.0640183649114716 11.912199616189238 18.81849343359404 297.18808299430265 0.8626997239024631
2.0661754458470423 11.843296331963469 17.615237729234995 314.93183915548775 0.8912672389396338
2.067168690696191 11.772402995305464 16.521206074505365 333.99330848191994 0.921562434688188
