M[M_sun], R[km], Lambda[1], P_c[MeV/fm^3], rho_c[fm^-3]
0.24162668629717493 15.618656898711224 2160425.4255784233 3.5677272577965504 0.1711233750220791
0.25364126082649197 15.277382720724269 1723243.1785299333 3.7847865778263654 0.1738877613728365
0.2660363765983181 14.981313544158674 1383107.0510326382 4.011332054819815 0.17666582210562184
0.2788089244253345 14.723666281424054 1116533.5046728149 4.2476208075065465 0.1794562684580343
0.2919621078023078 14.498510286755376 905949.6960943701 4.494277496192996 0.18226565714204646
0.3054942559884442 14.301369132198953 738770.9309949595 4.751454945822494 0.185089639991463
0.31940815306102305 14.128297477689568 605206.3043122618 5.019839979844935 0.1879349355774831
0.33370295305659387 13.976138756291391 497795.58071798197 5.2996503916731985 0.1907980445731859
0.348382609611518 13.84217661537008 411100.5772392228 5.591621986915269 0.1936854093760264
0.3634426931086038 13.724126407112472 340740.2809414819 5.8959129431701145 0.1965919250620079
0.378893206576044 13.620135683841195 283384.6173860963 6.213391033158252 0.19952535032652172
0.3947215856278523 13.528589595206679 236465.05852210568 6.544320235602557 0.20248198061619593
0.4109432647715959 13.448035241830556 197934.1646088963 6.889389764430588 0.20546530477197006
0.4275473419875954 13.377201625495712 166148.31022872875 7.249310363400788 0.20847850151367353
0.44454040501530545 13.3150719473889 139862.13591956944 7.624350441826425 0.21151726918542937
0.4619171770304428 13.260689313295412 118030.04237038722 8.015440043617165 0.2145874777189512
0.4796795382344998 13.213251730504554 99852.01408098597 8.423292517398188 0.21769091362273083
0.49783100174281586 13.172095376751642 84680.44943310748 8.848361556796148 0.22082523164696186
0.516365376391706 13.136505204672197 71971.04960570656 9.291494680055699 0.22399347691682533
0.5352799764744769 13.105947510728765 61308.271363102125 9.753588247515024 0.22719874283015937
0.5545828615564697 13.07990107706273 52328.766958994005 10.235451316095933 0.23044237947100132
0.5742601603083345 13.057909849981655 44753.47063831949 10.737573004485748 0.23372131424613313
0.5943132997194793 13.039579370289545 38348.855847376915 11.26116190657268 0.23704128415615164
0.614745374665221 13.02456608575054 32919.94812691555 11.807171980214033 0.24040412183499293
0.6355422881868932 13.012495314901486 28311.288802315266 12.37658154907947 0.24381145900977064
0.6567096860303012 13.003052714637183 24384.395270519657 12.970104197138157 0.2472615265903847
0.6782370236846619 12.996004072667048 21040.888018861617 13.58901716719031 0.250758559069571
0.7001204985576435 12.9910803931126 18183.283495252046 14.23454074939632 0.2543054597507366
0.7223494907621683 12.98801157520831 15739.016811026195 14.90786374199969 0.2579042115542983
0.7449326267242468 12.98665414724718 13643.243100449325 15.610047207362475 0.26155503007642855
0.7678470769605327 12.98676008409581 11843.567817130332 16.342293868035455 0.26525918103562524
0.7910876445214435 12.988124113430063 10295.944475366654 17.10624877043352 0.2690216596055358
0.8146552762058611 12.990657284997155 8962.660417715482 17.903365787355796 0.2728448960543213
0.8385319867912846 12.994106195671812 7812.638895614075 18.735047925590866 0.2767303143799682
0.8627099298313912 12.998371431511362 6819.558346546774 19.602563089019352 0.2806777168828245
0.8871783866390148 13.00331801733652 5959.912842510091 20.50803198530635 0.28469379199364747
0.9119327976262674 13.008810833397748 5215.139832196873 21.453247174509762 0.2887815499461946
0.9369475771364228 13.014704193360167 4568.727821011247 22.43974060311395 0.29294130298116833
0.9622208845660364 13.020901654134923 4007.9686110180073 23.46944012225143 0.2971760751022591
0.987740031215604 13.027297028589613 3519.3882169634335 24.544812458063372 0.3014923411061234
1.0134761374874013 13.033757030675057 3094.4344114283676 25.667856127065818 0.3058921571072885
1.039434291966642 13.040206629076685 2723.7426423545276 26.840417228762774 0.31037593800791347
1.0655838285090455 13.046539263432436 2400.187494716563 28.065644783078906 0.31495282640546146
1.091907258608427 13.052660124276537 2117.5181838197063 29.345658895974495 0.3196237237626632
1.1183999785587804 13.058497056731769 1870.168116803253 30.683081243249465 0.324392405277553
1.145025863371695 13.063959154926804 1653.4891102079528 32.08144748404275 0.3292678533740932
1.1717851369042658 13.068968220087074 1463.4613685105128 33.54254855474131 0.3342467973997046
1.1986345070523068 13.07343361368807 1296.575530096793 35.07099440875423 0.3393432692158847
1.2255759074553403 13.07730476999613 1150.0581694661253 36.66889324226032 0.3445545571031337
1.2525672893246016 13.080469033762343 1021.1215517258586 38.341130255097795 0.3498940967092841
1.2796047454015351 13.08291727787794 907.5779696047836 40.09009508865304 0.3553593773579386
1.3066440378803303 13.084516831398465 807.5066927071526 41.92119512911834 0.3609645884128902
1.333676287491324 13.085234167672539 719.2576039432865 43.8377879101102 0.36671098258658946
1.3606806922713222 13.085038652313925 641.2456351172146 45.84477495844427 0.3726075124002984
1.3876081691123419 13.083791613478992 572.3691969065475 47.9473767074063 0.37866352582062307
1.4144601294095613 13.081511990260728 511.326110444463 50.15021476949121 0.38488400494709724
1.441188470597034 13.078087838001816 457.3214431999567 52.45875493747023 0.39127721608480387
1.4677730174374772 13.073481824065912 409.4247365041803 54.87928191835285 0.39785418941736067
1.494180446146481 13.067626643062026 366.91107698120584 57.417977395482744 0.4046239722423655
1.5203883021492617 13.06049916589843 329.1572890841504 60.081460428598916 0.41159632081777286
1.5463708911445018 13.052026084017191 295.59454743014214 62.876826819961025 0.41878175871696477
1.5716345746621783 13.042067777518078 266.17808873084107 65.83393328441092 0.4943067125076055
1.592526788005983 13.027883653134399 243.19998324424583 69.1253865488014 0.6518158279682755
1.6088531473749563 13.006933583055352 225.07478395931616 72.79722982749342 0.8058490318833618
1.6213659917584997 12.978781492459454 210.26702305011656 76.86781205949352 0.9562521001794
1.630641996172542 12.943427791209352 197.82944585607117 81.35098096923755 1.103813232589129
1.6371907590502537 12.90115362781504 187.078101529199 86.26475468752965 1.248988374011871
1.6414379314087308 12.852312064202438 177.5890381025082 91.6285633371637 1.392306655109698
1.6436774360249502 12.79716555252509 169.05915429092997 97.4639018430284 1.5343155868674418
1.6443038102410765 12.736332417640778 161.2345998741482 103.79388344304662 1.6752379026624125
