M[M_sun], R[km], Lambda[1], P_c[MeV/fm^3], rho_c[fm^-3]
0.24162668629717493 15.618656898711224 2160425.4255784233 3.5677272577965504 0.1711233750220791
0.25364182461190865 15.277352630547442 1723139.573972101 3.784799491500634 0.1738879223355565
0.26603801066826754 14.981268882665908 1383084.844172947 4.011359201700109 0.1766661501596492
0.27881126347097007 14.72357152124608 1116499.5171460493 4.247663105766676 0.17945675905410968
0.2919646230160123 14.49852406101841 905998.260231047 4.494336055515495 0.18226630921369338
0.305499371413023 14.301288642807192 738704.3914313079 4.75153175426982 0.18509046966928525
0.31941323682434786 14.128231814122545 605151.7021490615 5.019935602936447 0.18793592770396464
0.3337102611350749 13.97607943315673 497753.62480939645 5.299767346547975 0.19079922211471165
0.3483891795785737 13.84212586870752 411067.80288769415 5.591760565301631 0.19368675016003606
0.3634501811081125 13.724082249779608 340698.59641819505 5.896076257997733 0.19659345894942998
0.37890218888860805 13.620090308391516 283348.93234882376 6.21358106035331 0.19952708314573303
0.3947317416377257 13.528554523791925 236448.46851270756 6.544536777590572 0.20248387939689694
0.41095471145762763 13.447956661565406 197908.21985322636 6.889637000970597 0.20546741034209356
0.427560833877528 13.377141968981231 166120.83114829072 7.2495906140236945 0.20848081995525475
0.44455234935129967 13.315018409866019 139838.5852621257 7.624662931693135 0.2115197568056987
0.46193246797974896 13.260646457999409 118011.50724581779 8.015790222534935 0.21459018663598767
0.4796946937621189 13.213249154106848 99843.97635185855 8.423683115396054 0.2176938503736288
0.4978494782988788 13.172055112451346 84667.31235026217 8.848791133469383 0.22082834196562007
0.5163851444591991 13.136463043754372 71956.16586887554 9.291970186283192 0.22399682451031122
0.5353014550372127 13.105899099595133 61296.06957333012 9.754112906612459 0.22720233492405864
0.5546051865623025 13.07987545433284 52316.28650730696 10.236028547208228 0.23044622360503061
0.5742859087513691 13.05787617151772 44744.85444109714 10.738200299440866 0.23372534167405665
0.5943395036709649 13.039556309086882 38342.37245543289 11.261848697516774 0.23704557523839873
0.6147720654369105 13.02453811051518 32913.21094926046 11.80792232342381 0.24040868517362837
0.6355720402712102 13.012467841502897 28304.730327794725 12.377399753851787 0.24381630366094073
0.6567413836143815 13.003042451906913 24379.54245793738 12.970986506210304 0.24726656950723322
0.6782705189454393 12.996006898389409 21036.118534275014 13.589976107459298 0.25076389819207323
0.7001554031948322 12.991076651097634 18179.862471512493 14.235581461304175 0.2543111056636287
0.722386409941184 12.987994531269111 15735.125646910901 14.908991696219807 0.25791017547344564
0.7449703783966302 12.986649913054578 13639.855118768612 15.611257222343514 0.261561214870377
0.7678874275726553 12.986761876978449 11840.779498028454 16.3436023269519 0.2652657033751509
0.7911287719096007 12.988143219526634 10293.384562260786 17.107662238549185 0.26902853282234185
0.8147006216600651 12.990649653694913 8960.494037190292 17.904891265135973 0.27285213433731137
0.8385778881591915 12.99411845531521 7810.526084860938 18.736678647580117 0.2767378067037506
0.8627574806624257 12.998385486554696 6817.69285705713 19.60432025441545 0.28068560017577054
0.8872283257725794 13.003324933856094 5958.648057661227 20.509924049152264 0.2847020833107894
0.9119861578808826 13.008827295869864 5213.657048999673 21.455283170739236 0.2887902674924512
0.9370024751797739 13.014716810734765 4567.6567044703625 22.441912051580783 0.2929503219418643
0.9622779212214835 13.02091918395975 4006.571995189667 23.471774267300855 0.29718555475884684
0.987798894131957 13.027313508357341 3518.3250592809795 24.54732028339446 0.3015023035056432
1.0135383703380862 13.033760055409513 3093.7282170729636 25.670527926658494 0.3059024680964762
1.0394982237094508 13.040220055216816 2722.944023796776 26.843285658531492 0.31038677441906287
1.065648821878616 13.046556465166798 2399.4867079612086 28.0687232663763 0.3149642150538056
1.0919741603612565 13.052677052689413 2116.9984260819106 29.34893652394662 0.31963552121088895
1.1184691149846775 13.058513101897555 1869.6046587496173 30.68659713805217 0.3244048078242938
1.1450960354793516 13.0639663293492 1652.9500052212709 32.08519017261689 0.32928071288339394
1.171855701650138 13.068983399791549 1462.9075517720917 33.5465619273787 0.33426032287928864
1.1987079846624211 13.073442317468063 1296.151025721645 35.07529740217615 0.33935749804858684
1.2256517439001542 13.077312716216856 1149.6728076475922 36.67347337202988 0.3445693318927815
1.2526436055425125 13.080478603724975 1020.779571040819 38.34604020402342 0.34990965035111266
1.2796835460433806 13.082927947274822 907.2484063254866 40.09532206021425 0.35537554786173065
1.306723747337486 13.08452026542017 807.2197083095649 41.92676072368582 0.3609814140484516
1.3337580883743727 13.085230785566043 718.9816248329071 43.84375450965885 0.3667287184061461
1.3607643163873808 13.085041119258925 641.0147628339428 45.85113006390478 0.37262599218370174
1.3876932545527139 13.083783874062664 572.1687469937888 47.95414745567592 0.3786827975558435
1.4145472200493703 13.081498658539426 511.1390974923221 50.15747538189502 0.38490434998318873
1.441269016642948 13.078055627684867 457.1370506313636 52.46649389093133 0.39129846435147275
1.4678619828518333 13.073464179310601 409.26597630554613 54.88753347001887 0.39787640111043643
1.494268978935858 13.067606351759125 366.7776148301276 57.426778576879634 0.4046472122102779
1.5204792110925531 13.06047317892922 329.0501343710164 60.090851293979135 0.41162065894354194
1.5464607394728975 13.05199677207394 295.4837425043156 62.88685071942731 0.4188072703380418
1.5721764969077958 13.042124278211666 265.63803919860345 65.82239612855878 0.42621840631528723
1.5975993098255317 13.030808953989046 239.076337928689 68.9056742888748 0.4338663261722098
1.6226805341839383 13.017973488818805 215.37784050073134 72.14549135859642 0.44176426301227795
1.64743851098172 13.003673424045854 194.2297305201222 75.55132985301614 0.44992650482776453
1.6717874327111617 12.987751702475128 175.3523030697239 79.13323350058286 0.4583677408043629
1.6957243313267314 12.970218178386112 158.46507023052175 82.90115737085732 0.46710027238878304
1.7191884191388096 12.950977188082298 143.38301763239545 86.86793782325972 0.4761461016051729
1.742194250433142 12.930096021527651 129.87053019956693 91.04527761074651 0.48552009565792187
1.76467499710324 12.907461062438307 117.76014648382991 95.44698371173085 0.4952430793688684
1.7866034158804425 12.883042788382587 106.8948963314881 100.08699040912585 0.5053336557809444
1.8079436474354615 12.856801409260184 97.1484382282279 104.98166931388438 0.5158169557162882
1.8286569909461998 12.828686162242665 88.3923499987952 110.14749318615257 0.5267153014215673
1.8487391528105594 12.798736540024832 80.51770556112405 115.60206968678862 0.5380520310622451
1.868128756167301 12.76685097338546 73.43162785266358 121.36574547099865 0.5498570293291809
1.8868035023353253 12.733020527445298 67.05598552846719 127.45981766339865 0.5621596798632684
1.9047302169533937 12.697226989976985 61.30006639616994 133.90687522387165 0.5749898568793927
1.9218770592025778 12.659431055212863 56.112253390709064 140.73222353203954 0.5883825762028184
1.9381953151682756 12.619561959026205 51.42667031902762 147.96368673393215 0.6023766948442523
1.9537002431772794 12.577749980834884 47.19707720108803 155.62993885625636 0.6170086444182377
1.968320890002105 12.533838834925163 43.367733489832005 163.76435124515328 0.632325148839401
1.9820461868408155 12.487864830364497 39.90442100265765 172.40056424832648 0.6483674098944379
1.9948400803808677 12.439810805708376 36.768770236697435 181.57812258274427 0.6651895469744225
2.006677637176048 12.389661626245564 33.925900770227464 191.3388109613769 0.6828453452407943
2.0175393884788604 12.337429135872926 31.34758919946922 201.72860647958308 0.7013939634929595
2.0273847732483934 12.283070903440207 29.01092467155434 212.79763171336802 0.7208987699248821
2.0362032854294347 12.226629788535561 26.88772957538692 224.60083500507196 0.7414284687181159
2.0439576644000548 12.168062781592017 24.957718074066992 237.19978043414153 0.7630616616372651
2.0506278566743883 12.107385687435817 23.202757628293245 250.66084198490552 0.7858795143382287
2.0562046768211193 12.04464645539867 21.607305603919492 265.05728458308903 0.8099709222210708
2.060670790091644 11.979845847193195 20.15556013856375 280.47097366115713 0.8354362102168778
2.063991358356833 11.912995705718888 18.833521068137877 296.9909376509856 0.8623803131215669
2.066159036492907 11.8441075997808 17.62941828207591 314.71767957790377 0.8909244115778688
2.0671651815704535 11.773246222378656 16.533602886045042 333.76072233459774 0.921195083447343
