M[M_sun], R[km], Lambda[1], P_c[MeV/fm^3], rho_c[fm^-3]
0.24162668629717493 15.618656898711224 2160425.4255784233 3.5677272577965504 0.1711233750220791
0.25364672785677606 15.2771941848192 1723113.848721502 3.784860059947112 0.17388867729202265
0.26604391777575703 14.981189267678406 1382921.9346708439 4.011486529289317 0.17666768883842118
0.27882222764810455 14.72339357853875 1116268.6770689348 4.247861500833975 0.17945906013791535
0.2919792288230854 14.49827255091826 905766.1952809236 4.494610724765021 0.18226936771953428
0.3055168744639056 14.301087831168447 738564.2880430721 4.751892024762357 0.1850943612781912
0.3194367065835447 14.127961884554686 604980.8391710849 5.020384129208582 0.18794058133715327
0.33373697488971454 13.975777069907055 497549.31011344166 5.300315937955408 0.19080474551990673
0.3484216728004209 13.841853133792778 410898.5565903618 5.592410592251772 0.19369303934959492
0.363486700116573 13.72382845978018 340558.69233320473 5.89684232528784 0.19660065401553578
0.3789452867939925 13.619833311829298 283212.03071861604 6.214472439478322 0.19953521145006278
0.39477960315587646 13.528315128788751 236327.4373347846 6.545552543777799 0.202492786294126
0.4110088336840096 13.447714129509055 197800.85936410315 6.890796764860602 0.20547728737805687
0.42762010420647856 13.376905903944005 166012.10626191064 7.250905259869441 0.20849169568342174
0.4446187019012301 13.31478889800808 139743.20440448634 7.626128826602124 0.2115314262717416
0.46200290547490447 13.260429741467604 117927.70847250022 8.017432936952623 0.21460289436008603
0.47977379676009924 13.213044278001819 99764.99236526561 8.425515460350606 0.21770762704611576
0.4979344359878833 13.171878121763166 84599.30716756539 8.85080635335825 0.22084293301865268
0.5164782065517898 13.136296513318916 71904.55186277477 9.294200895913876 0.22401252884517978
0.5354011368236536 13.105742259299154 61247.69313338108 9.756574232434405 0.22721918646349135
0.5547126123646821 13.079720818943475 52275.30238785981 10.238726433016495 0.23046412785867051
0.5743989111628465 13.057769776139928 44704.26886422295 10.741143183054367 0.2337442358984466
0.5944600629539701 13.039486061055246 38304.195227384014 11.265070737013025 0.2370657065994783
0.6149032115601896 13.024458529326454 32881.67976871598 11.811442555196665 0.24043009405618437
0.6357125761527729 13.012410333482872 28274.512809617125 12.381238402017773 0.24383903258157064
0.6568874148540446 13.002982629432067 24355.22628013869 12.975125942949816 0.24729022883018037
0.678426140645165 12.995939478563413 21014.429574019443 13.594475118275389 0.2507889474789401
0.7003174561191776 12.991054305934325 18159.997720754945 14.240464171908707 0.25433759460695904
0.7225577257187169 12.987989786423707 15718.797760230946 14.914283782561878 0.2579381567288032
0.7451517616367074 12.986649200135506 13624.220604638853 15.616934371717722 0.2615902326921759
0.768077406634939 12.98675850892531 11827.60967596127 16.349741426176926 0.2652963052450484
0.7913278131170361 12.988150361044408 10282.048075437022 17.114294102085548 0.26906078132898176
0.8149070327476522 12.990690871730175 8949.375608040766 17.91204875055464 0.2728860960938382
0.8387949572154566 12.994163959793074 7801.648919227118 18.744330007238105 0.2767729607424592
0.8629824675914065 12.998426494952431 6808.914285222251 19.61256498328362 0.28072258907452363
0.8874695408495926 13.003383097082427 5950.567933691976 20.5188018336169 0.28474098713883567
0.91223146458443 13.008885872450463 5206.792269882248 21.464836415014254 0.28883117171794154
0.9372566234074449 13.014783652100869 4561.763914511375 22.452100958153405 0.2929926408590833
0.9625469849547571 13.020988232901058 4001.129861324442 23.48272671151038 0.29723003588907
0.9855297025410366 13.025764675372118 3556.5045428182125 24.65007260071863 0.6250460021947926
0.9866824353134319 13.00681656231991 3490.3160467940183 26.405162420121172 1.262514157261481
