M[M_sun], R[km], Lambda[1], P_c[MeV/fm^3], rho_c[fm^-3]
0.24162668629717493 15.618656898711224 2160425.4255784233 3.5677272577965504 0.1711233750220791
0.25363979995539854 15.277419964474435 1723272.9078650645 3.784759825513064 0.17388742791815695
0.2660328445231512 14.981407749569005 1383142.6755106184 4.011275817034083 0.17666514250517054
0.27880423060007486 14.723745825084317 1116634.787610983 4.247533182579453 0.17945525214092797
0.2919550867642774 14.498630140556354 906114.6978242194 4.494156185755246 0.18226430632216742
0.3054862588224432 14.30146137883363 738825.3503565259 4.7512958319556695 0.18508792125802792
0.3193976412086788 14.128417862337598 605248.7494453214 5.0196418915059615 0.18793288033451117
0.33369215614287 13.976230144112884 497870.5028740137 5.299408115082585 0.19079560524992797
0.3483673523105535 13.842304750479016 411155.45573694736 5.591334918227753 0.19368263190750482
0.36342536659743857 13.724306656972068 335878.1989707005 5.8955746345962075 0.19658874759628803
0.37887229501693914 13.620301226883294 283446.14388573123 6.212997392244404 0.19952176079536194
0.39469961022012806 13.528738369614423 233407.39668372044 6.543871672102897 0.20247804732028352
0.4109194794059637 13.44812752296426 197991.6326967883 6.888877620993298 0.20546094314354543
0.4275203416684563 13.377314062000163 166192.08129183392 7.2487298360289945 0.2084736989595031
0.4445108108995293 13.315169851588815 139896.06046954775 7.623703136007617 0.21151211621489538
0.46188509409600687 13.260781899618545 118064.42042277865 8.014714671637288 0.2145818663802488
0.479642768337167 13.213356262120355 98808.96965530702 8.422483425203284 0.21768483038051528
0.49779332302108964 13.1721719087924 84709.06037464713 8.84747172843017 0.22081878890939777
0.5163249306854074 13.13656531422146 71994.67014383564 9.290509719085922 0.22398654273019292
0.5352351706936938 13.105996767753746 61328.89609880754 9.752501478405765 0.22719130223357697
0.5545349952892649 13.079960558174427 52348.443642268714 10.234255657800528 0.23043441685318172
0.5742080310195224 13.057950318569835 44771.23920862526 10.736273652532965 0.2337129720041074
0.5942608703290748 13.03964302362668 38361.26488982822 11.259739326025322 0.2370323958471483
0.6146878944487744 13.024589861241967 32933.16098710916 11.80561777070071 0.24039466964801062
0.635481870182564 13.01251548092531 28322.982573612473 12.374886786302397 0.24380142419361114
0.6566460385391919 13.003085701530088 24396.82867051861 12.968276663481426 0.24725108115741828
0.678169309063301 12.996020443059054 21050.89202651316 13.58703091902006 0.2507475001719068
0.700047413566618 12.991091031527455 18192.200586955056 14.232385141380947 0.25429376547204874
0.7222736036839458 12.988012085569077 15746.892498531 14.905527445017066 0.25789185867147735
0.7448525805159918 12.986653397608263 13649.981200910179 15.607540953293418 0.26154221976809156
0.7677636710340728 12.986756609267198 11849.639881133127 16.339583727905673 0.2652456716668049
0.7909996334915406 12.988117619611657 10301.155389226868 17.10332114863437 0.2690074235721025
0.8145662990204633 12.990621638158444 8968.213552736977 17.900206187157348 0.2728299039773019
0.8384383252429107 12.994091187269937 7816.955655407501 18.73167035869685 0.27671479620769024
0.8626088103264523 12.998359338183075 6823.28803343359 19.598923654162512 0.2806613890338933
0.8870741812297658 13.003297755677426 5963.324547561332 20.504113173956085 0.2846766191546893
0.9118241278774757 13.00878828978956 5217.98361271484 21.449030279529158 0.28876349442304555
0.9368357739643798 13.014674237810729 4571.587637025079 22.435243186611956 0.2929226232734597
0.9621038576852997 13.020870607739317 4010.3020174284 23.464605766121203 0.29715644134558705
0.9876189190788163 13.027277739005358 3521.475067404745 24.539618418174495 0.3014717076513714
1.0133566141234582 13.033728926637895 3096.601660462656 25.662322503587514 0.30587080178857007
1.039306873176734 13.040168166074887 2725.475451757292 26.834476399059344 0.31035349462305645
1.0654509393506149 13.046508139887996 2401.7422425499753 28.059268951837964 0.3149292394332773
1.0917700902761036 13.052631934180237 2118.86513662723 29.33887065355221 0.31959929025794503
1.118259587931607 13.058469158123723 1871.4189229381923 30.67579957924129 0.3243667187359241
1.144881150204546 13.063926549642657 1646.6468593868474 32.07366884716111 0.3292410439163191
1.1716347621111585 13.068945234794686 1464.3598065220676 33.53423668188728 0.33421878553119655
1.1984814834296464 13.073408496950067 1297.4950312765466 35.062082780378944 0.3393138008767955
1.2254191213286505 13.077286513180367 1150.860431307057 36.65940771004623 0.3445239582445399
1.252406991971374 13.080457793365023 1021.926592930747 38.330961733851595 0.34986188506313765
1.2794410828361618 13.082901207478777 904.331291662195 40.07927007570302 0.3553258883842744
1.3064764718928021 13.08450984163887 808.1024674716334 41.90966889930975 0.3609297428739627
1.3335060591600423 13.085231919777403 719.7986522437021 43.825431298998446 0.36667425234799667
1.3605034807064686 13.0850491837097 641.7406593643481 45.83161384655522 0.37256924167472694
1.3874331581132389 13.083803407647027 572.7771899651215 47.93335490737875 0.37862361525140914
1.414281882914391 13.081528550215863 511.70809497858994 50.135178607813636 0.3848418719650574
1.4410076174206545 13.078116143910146 457.66510721116606 52.442728272955556 0.39123321286871887
1.467589405369777 13.073520318835635 409.7297689786684 54.862193823187454 0.39780819133840234
1.4939953175629896 13.067674010904422 367.208602444449 57.39975119840093 0.40457584504031785
1.5202031096314845 13.060554672710747 329.4239488265464 60.0620132008347 0.4115459198104085
1.5461826575686204 13.052093894649012 295.82808627275733 62.856068809925446 0.4187289279310893
1.5718970985476313 13.042243010826468 265.96917678742284 65.78952625937183 0.4261362111610322
1.5973132338386042 13.030931386010986 239.34783678981458 68.87056025806235 0.43378000907431824
1.6224046698699974 13.018151710138184 215.6188217079076 72.10796378395284 0.44167353333339776
1.6471566101855573 13.003844529515755 194.4559792541013 75.51120493375635 0.44983104859573847
1.6715103266340254 12.987948774172558 175.56214117424494 79.09048937225366 0.4582679608379463
1.6954456983955415 12.970434927131235 158.6685981906102 82.85544087653057 0.4669952160179682
1.7189110818625113 12.951226632169414 143.56041333552966 86.81898207300495 0.47603524091753324
1.7419248209509766 12.93038186465089 130.02910251126792 90.99306222245484 0.4854039356387664
1.7644041278210185 12.907763457321643 117.90434734889902 95.3910059514367 0.49512025166355655
1.7863318535391441 12.883362563527117 107.02275184683647 100.02720154390245 0.5052046340036587
1.8076748376928364 12.857141588162541 97.26993022554286 104.91775946628519 0.515681243020951
1.8284029740279 12.829086866071618 88.49879696811519 110.07885412046059 0.5265713544262176
1.8484805051983344 12.799141040032367 80.61623658938859 115.52859378636467 0.5379002552065532
1.8678766826129511 12.76728792355288 73.52206762706349 121.28702886080941 0.549696791157255
1.8865567295662304 12.733491171214107 67.13305086920752 127.3754186426477 0.5619902917020528
1.9044906315283512 12.697723968671898 61.37348024938963 133.81662050328939 0.5748116660371213
1.9216455047230177 12.659968161229088 56.180566209481555 140.6352851218031 0.5881937033158635
1.937979177602907 12.620162322323282 51.48977617973939 147.85948446319614 0.6021762565921054
1.9534787676050276 12.57832629331166 47.25559435258383 155.5181784791995 0.6167968473163434
1.9681172095667088 12.534482143499426 43.42114622885848 163.64400485947988 0.6320998081715085
1.9818521598642516 12.488548035166751 39.9536865135606 172.2712297712949 0.6481286079237382
1.994657277412982 12.440529158589033 36.81277608208545 181.43898037541294 0.6649360975144525
2.0065102214482557 12.39042322375981 33.968500610385895 191.18895800964322 0.6825759527922468
2.0173837969648982 12.338230077043072 31.38642078597821 201.56704668901358 0.7011072108012578
2.0272413783608125 12.283914388076946 29.045635692364016 212.62367218402935 0.720594438135972
2.03607525033433 12.2275177716909 26.918752259104487 224.4128667019433 0.7411035610312673
2.0438450276064657 12.16899723815673 24.986871557195315 236.99688813679566 0.7627157116322865
2.050530830217538 12.108364776857261 23.228857373147726 250.44112068727094 0.7855091138959776
2.0561251013975292 12.045661625352176 21.631421112204066 264.8195384496368 0.8095752988422471
2.0606057162618514 11.980911676390265 20.178227673606635 280.21345161377985 0.8350131514930804
2.0639469718803904 11.914101785344593 18.85398563571943 296.7119953126589 0.8619283765522786
2.066133004776243 11.845261928003156 17.648598136663097 314.41467095658464 0.8904393543723459
2.067157122537761 11.774447353658493 16.551259531906965 333.43165024403976 0.9206753403663998
