M[M_sun], R[km], Lambda[1], P_c[MeV/fm^3], rho_c[fm^-3]
0.24162668629717493 15.618656898711224 2160425.4255784233 3.5677272577965504 0.1711233750220791
0.2536461698624313 15.27722028404131 1723185.547301929 3.7848532972754714 0.17388859299858309
0.26604310027899297 14.981211208970128 1382952.6169785792 4.011472312590516 0.1766675170380063
0.2788208208177107 14.72340092916483 1116354.2652427636 4.2478393489153605 0.17945880320904167
0.2919777339604934 14.498283395662838 905741.3021938301 4.494580056116313 0.18226902621701307
0.3055147415326732 14.301102107054932 738536.5164470804 4.751851797778222 0.1850939267499882
0.3194342329262852 14.127987181475275 604996.9116918165 5.020334047328864 0.18794006171832137
0.33373419262825577 13.975803018402754 497584.3877663842 5.3002546823535965 0.19080412877763792
0.3484180342976348 13.841883859402255 410917.60163471306 5.592338009743353 0.19369233709385922
0.36348280570217534 13.723854656102613 340587.03115906956 5.896756784841483 0.19659985060156132
0.37893945179118554 13.619872204537943 283229.98501934565 6.214372905581913 0.19953430382077414
0.3947740972148837 13.52833132115692 236344.5383527867 6.545439119529753 0.2024917917166993
0.41100275019713517 13.44773836148034 197813.88026309485 6.8906672601353005 0.20547618446147167
0.4276138548451778 13.37693160546387 166027.68248565446 7.250758458989696 0.20849048123736547
0.4446117348508385 13.314816403816101 139750.87486674395 7.625965135086187 0.21153012318202144
0.4619947413420386 13.260459862626151 117930.08165853101 8.01724949900106 0.2146014753192275
0.479764608535604 13.213058009338566 99770.32244599344 8.425310845037998 0.2177060886250119
0.49792591127593094 13.171886695829484 84611.72156876099 8.850581314948693 0.22084130364441595
0.5164685568774501 13.13631101762063 71912.07700223796 9.29395179175805 0.22401077513639292
0.5353893484224874 13.105772564899096 61249.44550692515 9.756299372936613 0.22721730462987785
0.5547005150949483 13.079755041162109 52282.488990086415 10.24442532675212 0.2304864478526249
0.5719923924096338 13.058001026491514 45496.731381146885 10.775084739964893 0.35259044855351385
0.5839204433781117 13.033902402295213 41150.903656117654 11.394529961183006 0.47812070518509286
0.5925198570567164 13.003207182427742 38000.21061793839 12.10439611304475 0.6019923501388927
0.5987105031521354 12.965258808591075 35553.5736426295 12.906011340079736 0.7252645278500665
0.6031524466245138 12.919902106687681 33531.07001502427 13.801418742281498 0.8503262283039262
0.6062518798650391 12.867292818106122 31792.217066773657 14.79416266630306 0.9810882491608177
0.6083258649630127 12.807943910934807 30238.625891713244 15.889401417454849 1.1246200956084773
0.6094754177721304 12.742389104404714 28844.86162155233 17.097751204339136 1.3002528253551022
0.6096849630627321 12.671735800011339 27612.48418665007 18.437744652016544 1.5222513191152918
