M[M_sun], R[km], Lambda[1], P_c[MeV/fm^3], rho_c[fm^-3]
0.24162668629717493 15.618656898711224 2160425.4255784233 3.5677272577965504 0.1711233750220791
0.25364371707203603 15.277268416886233 1723180.0449165765 3.7848139939961603 0.17388810310216699
0.2660393354003557 14.981257003442892 1383030.656492521 4.011389688726867 0.17666651857737536
0.27881412248894694 14.72352941557638 1116441.7318732233 4.247710608631663 0.17945731001575824
0.2919679475384227 14.498436917168064 905915.6997189439 4.494401820609357 0.18226704152327683
0.305503677185845 14.301207665913891 738661.1712377965 4.751618014481006 0.18509140144419614
0.31941959565803796 14.128150884613415 605126.318219333 5.020042993550537 0.1879370419230348
0.3337166637060413 13.975965723226828 497692.6630581547 5.299898694695019 0.1908005445726064
0.3483968935816833 13.842061327756468 411026.51962956216 5.591916198792423 0.19368825595687278
0.36345910476901244 13.724013231967207 340673.025700255 5.896259673147486 0.19659518162333126
0.3789120455779108 13.620058707130871 283317.1666134045 6.213794476542217 0.19952902924440602
0.3947434603126568 13.528489557646681 236421.9677840003 6.544779973105639 0.202486011893023
0.41096717214534473 13.447908062091496 197873.90575855417 6.88991467040385 0.2054697750915066
0.4275750171351924 13.377101549272515 166093.42263348788 7.2499053627390175 0.20848342379071344
0.4445691583031474 13.314956725565347 139812.40050397397 7.625013889636137 0.21152255065659023
0.4619498386528651 13.260595644582928 117987.14835350163 8.016183510868757 0.21459322903920972
0.4797135836247107 13.213190083161226 99822.8036155614 8.424121800615884 0.21769714867321122
0.497870218750012 13.1720039432897 84652.84613163146 8.849273597975419 0.220831835214785
0.5164075497310727 13.136418422939547 71945.29464968859 9.292504237345952 0.22400058426308725
0.5353253677075909 13.105860280881991 61283.77155463861 9.75470216486387 0.22720636929796037
0.554631225824281 13.079837224170145 52306.15503309604 10.236676853268456 0.2304505410704867
0.5743121589308007 13.057868367792135 44736.54390933084 10.73890483637224 0.2337298650193943
0.5943668845848298 13.039563088902483 38332.025266115605 11.262620059795092 0.23705039472387246
0.6148035992490443 13.024527781646977 32905.4526884891 11.808765067405355 0.24041381046312346
0.6356059311676324 13.012447622284494 28295.79695170218 12.378318720131729 0.2438217449284743
0.6567762574841852 13.003045189537369 24374.23066212622 12.971977474781971 0.2472722334772231
0.6783071125750245 12.99598674290533 21030.191956420935 13.591053149235503 0.25076989487212636
0.7001941780552212 12.991068310721937 18174.65396800531 14.236750350580138 0.2543174469449984
0.7224264755665194 12.988002471913406 15730.731254174902 14.910258578273949 0.25791687395642066
0.745014118553588 12.986651642795064 13636.246561550592 15.612616277233048 0.2615681614574755
0.7679332375780034 12.986752758501204 11838.184290192088 16.34507195760519 0.26527302911536144
0.7911770649891414 12.988139177765214 10290.501521461867 17.109249819917736 0.26903625269293696
0.8147507634918206 12.990662455605447 8957.653027772923 17.906604661087446 0.2728602642785874
0.8386302224765935 12.9941298219165 7808.653626234081 18.738510258855896 0.27674622200986165
0.8628113325662322 12.998387935301738 6815.66260242725 19.606293894267026 0.2806944546530751
0.8872808767455975 13.003353529961608 5956.083435402105 20.51204921556555 0.2847113961195247
0.9120443154271691 13.00884381317208 5212.09549316636 21.457570012053463 0.2888000590847192
0.9370630359981342 13.014729177337165 4566.079440336149 22.444351042208837 0.2929604521203826
0.9623397107784532 13.020932780722623 4005.1276044203246 23.47439601181841 0.2971962024423288
0.987864767310441 13.027320727969927 3517.156375138589 24.55013712061563 0.3015134934627075
1.0136055262446226 13.03377837614738 3092.3949858199544 25.673528953738405 0.3059140496379428
1.039567152993371 13.040240530216227 2721.8199123212303 26.846507559754617 0.31039894618171754
1.0657178911408003 13.046560527547289 2398.7765105379317 28.072181121446995 0.3149770071633028
1.0920480042406981 13.052695736093797 2116.0747050482296 29.352618078583127 0.31964877254709434
1.1185455334968613 13.058526324702926 1868.9169342838904 30.690546341298592 0.32441873889464756
1.1451750239362377 13.063983353254198 1652.437065642188 32.0893941362039 0.32929515728820513
1.1719367993985592 13.069005385787172 1462.3530509947059 33.55106995742599 0.33427551540534534
1.1987896625448164 13.073465151564069 1295.5172689131296 35.08013077267271 0.33937348069448925
1.2257364080668751 13.0773238542037 1149.2959293723288 36.678618058251494 0.3445859278541521
1.252730887785601 13.08048952056585 1020.3844959428177 38.35155539076985 0.3499271212536762
1.2797717528348063 13.082935866089938 906.8799745559169 40.10119337195262 0.3553937117387706
1.3068146849527884 13.08452069238195 806.9245998045399 41.93301242689625 0.3610003138943856
1.3338510036535742 13.085238518271561 718.7686661279753 43.85045668680952 0.3667486407427487
1.3608581109847155 13.085033748747016 640.762842563442 45.85826867328773 0.37264675029008054
1.3877875551649708 13.083782349498474 571.9165737178503 47.96175298425713 0.3787044453453037
1.4146440860881677 13.081489714731372 510.93935216624175 50.16563121475258 0.38492720352564697
1.441366059934782 13.078041650708736 456.9675256499391 52.47518708249694 0.3913223325984545
1.4679598742978224 13.073447268544944 409.1026917873004 54.89680250730991 0.39790135169182383
1.494368966911633 13.067582352841777 366.6128754047395 57.43666506414324 0.4046733179836293
1.5205796640584235 13.060441356498906 328.9092240082498 60.10140023175985 0.4116479984233495
1.5465628915767504 13.05195864782022 295.3538852754683 62.89811081147754 0.4188359281675267
1.5722794342105417 13.042083778917572 265.5294589447629 65.83442011969245 0.4262484737852967
1.597702729246457 13.030758001381086 238.9775664474532 68.91851933724242 0.4338979017923171
1.6227896342929469 13.017943706980272 215.28721174479867 72.15921944628577 0.4417974531397915
1.6475419198852752 13.003608580705313 194.14273503962986 75.56600823936819 0.449961424361043
1.671890890024291 12.987677241647582 175.27377299216099 79.14885859188506 0.45840419396360826
1.695828621726403 12.970135031297282 158.40057562034445 82.91788158852454 0.46713870459227347
1.7192934046854442 12.950897939147055 143.32015749100248 86.88584724433237 0.4761866576322996
1.7422949209847163 12.929996681503534 129.80833462614257 91.06437969044208 0.4855625907540217
1.7647747683194737 12.907354834362808 117.70640413711381 95.46746243419791 0.49528801425863767
1.786703087064094 12.882925509004306 106.84825449737296 100.10886360474979 0.5053808571881591
1.80605719136613 12.85691350073376 97.8057916428391 105.18607667102407 0.7362398794340479
1.818382436624566 12.8260592592267 91.45506514618269 111.09862521060091 1.0140636334587019
1.8248454857880194 12.787583302961995 86.80455913265223 117.87840749463237 1.278362432612632
1.8266934324995565 12.741239037699234 83.21344978023487 125.5395114094421 1.5307299573668627
