M[M_sun], R[km], Lambda[1], P_c[MeV/fm^3], rho_c[fm^-3]
0.24162668629717493 15.618656898711224 2160425.4255784233 3.5677272577965504 0.1711233750220791
0.2536416824934756 15.27738070588255 1723174.9776733462 3.7847982759198513 0.17388790718392846
0.26603842310541065 14.981251869416264 1383020.2815908962 4.011356646323721 0.17666611927943363
0.2788112100190687 14.723590213559975 1116517.3115286874 4.247659124159837 0.1794567128734705
0.29196411523769605 14.498510208480404 906023.7757109662 4.494330543215942 0.18226624783295853
0.305497424981078 14.301347256291992 738755.238876226 4.751524524130564 0.18509039156998233
0.3194127519586241 14.12824133454586 605197.4697728453 5.019926601717716 0.18793583431284616
0.33370919372325303 13.976045091621128 497747.7732265305 5.299756337297582 0.19079911126982785
0.34838854538991637 13.842131021941052 411071.40479243314 5.591747520552028 0.19368662394849517
0.36344723231981274 13.72412069905911 340712.8050609074 5.896060884710898 0.19659331456026669
0.37890133625837363 13.620088719739886 283350.803778753 6.213563172520345 0.19952692003023473
0.39473084340989917 13.52854677710566 236453.90178322047 6.5445163938033435 0.20248370065862006
0.41095369745384497 13.447987831518407 197913.17694553835 6.889613727762251 0.20546721213768507
0.42755981263701365 13.377160332211227 166119.69825267757 7.24956423303763 0.2084806017121179
0.4445522137954245 13.315008649062579 138215.7047743399 7.624633515861823 0.21151952263676715
0.4619313560540451 13.260657294235331 118008.95101156413 8.015757258830813 0.21458993163508627
0.4796938683833865 13.21322462142711 99845.53316736895 8.423646346817204 0.21769357392531735
0.4978480118033786 13.172056599172022 84668.65270932572 8.848750695602119 0.2208280491781833
0.5163838531522591 13.136462715379949 71958.95492561057 9.29192542478956 0.2239965093866055
0.5352993992237522 13.105896941342985 61295.37722014519 9.754063518051149 0.22720199678382502
0.554603057441874 13.079861310172722 52317.67918046034 10.235974209701995 0.23044586173843623
0.574281010202683 13.057895993468355 44745.409579646584 10.738141249093417 0.23372496255253453
0.5943371429064295 13.039571644427921 38341.90026098484 11.261784046401717 0.2370451712970619
0.6147713913215285 13.024556739361604 32912.910958067354 11.807851689682156 0.24040825560262932
0.6355695686367385 13.012449368452016 28304.450662143936 12.377322731804256 0.24381584760768205
0.6567382352159606 13.00303931398815 24380.36292497985 12.97090344954977 0.2472660947894206
0.6782672586888873 12.996004542956788 21035.847443344883 13.589885836913297 0.25076339558985805
0.7001517793170253 12.991079183675327 18179.540753229223 14.235483492946132 0.25431057418050496
0.7223822510702709 12.987999552580085 15735.452772300756 14.908885515033647 0.2579096140534891
0.7449672472868412 12.986655117976518 13640.45707846136 15.611143316106928 0.26156063265725255
0.7678823259293974 12.986760449866589 11840.765376515437 16.34347915335018 0.26526508938563936
0.791125597325577 12.988132105005459 10293.603985151613 17.107529179516327 0.26902788580132264
0.8146968966251598 12.990655124309786 8960.658104799544 17.904747661633813 0.27285145294896174
0.8385748199398747 12.99411955962812 7810.974753805007 18.736525136500546 0.27673710139976876
0.8627525410779256 12.99838555589368 6817.981505112435 19.60415484004215 0.28068485806579896
0.8872235441679199 13.003325655018896 5958.540232310987 20.509745935505183 0.28470130278917094
0.911981135843453 13.00881879672307 5213.739655167488 21.455091507337936 0.28878944684527
0.936996642859063 13.01471563738464 4567.597836474597 22.441707636747257 0.292949472919022
0.9622720636858417 13.02091099604176 4006.6530633950674 23.471554536194866 0.2971846623655369
0.98779365576163 13.027310023661506 3518.4601210351652 24.547084201972254 0.30150136566622593
1.0135332528148797 13.033762599100983 3093.85612492359 25.67027640865517 0.3059014974400618
1.0394922903904769 13.040218527081443 2723.0079455903538 26.8430156296253 0.31038575429847926
1.0656425224851453 13.046556771258029 2399.4983966339037 28.068433462837493 0.31496314294449934
1.091968493720197 13.052681207537592 2116.898392323028 29.348627972756432 0.3196344106160557
1.1184626938750735 13.058511780033951 1869.661242013814 30.68626615610771 0.3244036402640377
1.145089298085163 13.063965684767464 1652.9369823524898 32.0848378400221 0.3292795023033016
1.1718491671871418 13.068981972380808 1462.9892475319828 33.54618411211773 0.3342590496029048
1.1987009659278927 13.073449143515557 1296.2059993320245 35.07489232144617 0.3393561585564304
1.2256449026347687 13.07730917186414 1144.5938407485614 36.67304220116016 0.34456794100229954
1.2526359361689912 13.080478874474107 1020.764549737189 38.345577983190395 0.34990818613684255
1.2796759294691926 13.08292791645952 907.2761757795353 40.09482999413553 0.3553740255736717
1.3067173363216469 13.08451696450584 807.2832318190034 41.9262367787858 0.36097983008364154
1.333750243770952 13.085231684122336 718.9951287655432 43.84319281293399 0.36672704875299167
1.3607564180057552 13.085038781587322 641.0468395847705 45.850531792081284 0.37262425249050807
1.3876855048527617 13.083785277091168 572.1749998104583 47.9535100539183 0.3786809833046836
1.414539864791669 13.081503130594394 511.1595716394723 50.156791862510126 0.3849024346865469
1.4412606768843588 13.078056419431947 457.1630777200584 52.46576533877121 0.391296464020206
1.4678533098878386 13.073465001329804 409.2646839858392 54.886756659875196 0.3978743100772359
1.494260288477702 13.067608751994685 366.7831852580697 57.42595002233428 0.4046450243697847
1.5204705962673137 13.060474151932077 329.0647164796857 60.08996722402089 0.4116183677163801
1.546452875565502 13.051997575153345 295.49236999607365 62.88590705273585 0.41880486863128724
1.5721684983783295 13.042128752893062 265.651888639694 65.82138844519643 0.42621588647899167
1.5975910418979684 13.030812712640214 239.08593874791228 68.90459779909358 0.4338636799515489
1.6226724556155632 13.01797592624638 215.38619063634903 72.14434086843438 0.4417614814948485
1.6474300988769268 13.003677135676766 194.2355838087299 75.55009972631507 0.44992357838549457
1.6717789361763746 12.987758378980667 175.35061873298116 79.1319240384133 0.45836468584410256
1.6957175586193816 12.970223556694904 158.47503477686692 82.89975580082529 0.4670970515849315
1.7191805684908295 12.95098579488859 143.39164755604173 86.86643693243174 0.4761427028258999
1.7421860346493783 12.93010368997162 129.87591037696353 91.04367677431355 0.4855165343861052
1.7646661971868713 12.90747024990712 117.7615486307455 95.44526751267885 0.4952393136449397
1.7865956426948255 12.88305121196943 106.89795163403107 100.08515735324825 0.5053297001258853
1.8079355892270799 12.856813411594386 97.15414375223308 104.97970989839487 0.515812794893389
1.8286492049834464 12.828697072177423 88.39458784447092 110.14538875797581 0.5267108881022728
1.8487310658340645 12.798748513302646 80.518362228362 115.59981694590206 0.5380473776769346
1.8681213397896315 12.766863418130251 73.43464740107122 121.36333203155823 0.549852116450907
1.8867945312564134 12.73303490611742 67.04800892431125 127.45722997935079 0.5621544864020318
1.9047229164311692 12.697239345785666 61.30110622677467 133.90410798134738 0.5749843934834287
1.9218698865089918 12.65944768338153 56.11508673188358 140.72925133725198 0.5883767852371037
1.9381889227536138 12.619578203125574 51.42952864078887 147.9604917934825 0.6023705492173392
1.953692879896167 12.577767826492892 47.197242002324536 155.62651214646456 0.6170021504601637
1.96831516020579 12.53385817998533 43.37040089647268 163.76066123968945 0.6323182395476007
1.9820389020150688 12.487888023603844 39.90825298075152 172.39659861590627 0.6483600877877672
1.994834717653293 12.439833328497832 36.772531400051335 181.57385618457403 0.6651817756709985
2.0066734866971876 12.389687696715802 33.92681557771199 191.3342161010437 0.6828370850052662
2.0175346060811257 12.337453399828668 31.350677789449765 201.72365260528633 0.7013851708547422
2.027379714160766 12.28309794872061 29.011956950594204 212.79229757368734 0.7208894381666422
2.0361994601055486 12.226657435912612 26.88907401580157 224.59507124585056 0.741418505923086
2.043954290875737 12.168091774051875 24.95950648412909 237.19355898409003 0.7630510534934151
2.0506248384411645 12.107415833489855 23.203364692404786 250.65410440946377 0.785868156308988
2.0562026111722047 12.04467767217339 21.607464457041267 265.04999420243814 0.8099587906041056
2.060668427854083 11.97987876460422 20.1562242923784 280.4630892692849 0.8354232779791312
2.0639917614156373 11.913025705769664 18.834663170893055 296.98238379362925 0.8623664543399601
2.0661579919140487 11.844142912457947 17.630415317254858 314.7083875934017 0.8909095369382737
2.067163718774919 11.773283767137107 16.533795040892056 333.7506309587769 0.9211791449253274
