M[M_sun], R[km], Lambda[1], P_c[MeV/fm^3], rho_c[fm^-3]
0.24162668629717493 15.618656898711224 2160425.4255784233 3.5677272577965504 0.1711233750220791
0.25363854304328776 15.277430765584587 1723356.807325035 3.7847375338051727 0.17388715006277194
0.26603003803049013 14.981495038714975 1383294.0210231822 4.0112289566091714 0.1766645762245906
0.278800149863516 14.723808817850236 1116656.3619536688 4.247460169305484 0.1794544052969786
0.29194986009297935 14.498741641040509 906216.6950266641 4.49405510497982 0.18226318076427342
0.3054793933236255 14.30156290250383 725720.573119066 4.7511632529937105 0.185086489152208
0.3193890932447085 14.1285137400585 605286.2534076595 5.019476839087905 0.18793116785196945
0.33368251836834056 13.976312615159253 497948.98530273366 5.2992062455770155 0.19079357275896897
0.348356213160326 13.84239830242837 411239.0480175177 5.591095728995059 0.19368031768587982
0.3634111337410761 13.72436068930037 340866.41750733875 5.895292754003306 0.1965861001141072
0.37885773476179646 13.620370831922264 283496.6821804496 6.212669411158066 0.1995187700027695
0.39468185378057613 13.528815073516663 236592.35064548397 6.543497932423015 0.2024747701281885
0.4108996492382228 13.448234968024092 198024.10074368547 6.888450910465979 0.20545730909763268
0.4275003155272254 13.377363380457524 166228.94250803182 7.248246152904032 0.20846969757296763
0.44448551802303904 13.315268256278245 139934.5471619672 7.62316381839739 0.2115078228999379
0.4618593997727582 13.260856710979036 118089.9448569594 8.014110316229653 0.21457719120257038
0.47961140528504065 13.213473201566568 99916.69924866225 8.421809322278978 0.2176797620689031
0.49776201645931395 13.172235329583984 84733.56187603112 8.846730364546758 0.22081342111812144
0.5162914655466808 13.136619868158851 72022.24903160072 9.289689101521384 0.22398076553137905
0.5351985120928981 13.106057638043572 61350.38151752963 9.75159604671488 0.22718510316894824
0.5544944956491177 13.080009205389773 51879.311129850204 10.233259513820114 0.2304277829228692
0.5741660132792984 13.05799457101283 44783.9914356207 10.735191125022286 0.2337060218421638
0.594217717883917 13.039668260274635 38377.58773903022 11.258554142345119 0.23702499079806696
0.614640235117329 13.024625098647096 32947.24142014934 11.804322933935495 0.24038679488009065
0.6354316565367576 13.012535397514156 28332.758215620943 12.373474863211992 0.24379306409222398
0.6565875372990119 13.003099980551488 24407.07054649855 12.966754137537075 0.24724237902346152
0.6781118141905097 12.996043949256471 21058.115388513215 13.585376180000011 0.25073828702837425
0.6999889405599552 12.99110222259342 18199.833043003404 14.230589322783832 0.25428402306851444
0.7222095677658539 12.98801961177861 15753.144388933568 14.90358111089971 0.2578815676693227
0.7447861001469521 12.986659727180777 13655.563740099919 15.60545304370235 0.26153154775922716
0.7676939100017536 12.986745936125665 11854.729737775602 16.33732598226129 0.2652344173710298
0.7909265175186635 12.988113524946687 10305.638522070909 17.100882243543456 0.26899556400252794
0.8144883540455915 12.990626435750642 8971.830632571047 17.89757404882278 0.2728174146691113
0.83835588586098 12.994094587823719 7820.247518400209 18.728856658641845 0.27670186871178504
0.8625254291372796 12.998343665119197 6826.45771911345 19.595891827116294 0.2806477871380102
0.8869865462403803 13.003276589007926 5966.022909402165 20.500848638087696 0.2846623134523397
0.9117340595967041 13.00877412671628 5220.419375472026 21.44551745491127 0.28874845352530004
0.9367413006218452 13.014651108046259 4574.12680932663 22.431496701340627 0.29290706250656784
0.9620068478744042 13.020843150219564 4012.250150292936 23.46057863175038 0.2971400859563289
0.9875182883906131 13.027244274422001 3523.2872660291855 24.535291693158268 0.3014545196268747
1.0132501519275037 13.033691847620535 3097.9185403426904 25.657712929355668 0.30585301255385544
1.0391980899283846 13.040145960904221 2726.851380130321 26.82952765725582 0.3103347991676404
1.0653405135700638 13.046478905270197 2403.003251235693 28.05395789490988 0.3149095915242758
1.0916554644408034 13.052601435855813 2120.002758869696 29.3332160962244 0.3195789373234808
1.118140051265356 13.058444126149443 1872.3775478250755 30.66973405573151 0.3243453222087072
1.144759743552307 13.063909622544273 1655.4094120096904 32.067163921382196 0.3292185473524972
1.1715106029443183 13.068921130354562 1465.148855211595 33.52731311452332 0.33419545239533033
1.1983606643454165 13.07339772689199 1298.2506942429363 35.05465969656189 0.3392892547510151
1.2252889781654848 13.077270486326729 1151.5526183675163 36.65150663926965 0.3444984706132741
1.252273917432105 13.080444369199316 1022.4427104437427 38.32249183500541 0.34983505428037937
1.279304630300468 13.08289780080465 908.7324891915049 40.07025341537275 0.3552979938494842
1.3063384439486676 13.084500896404425 808.6064264463927 41.90006823311296 0.3609007186055552
1.333364421831237 13.085229654618807 720.1651410860022 43.815139068740855 0.36664365851692154
1.360363313236092 13.08504861804055 642.168049102319 45.82065160425156 0.37253736496321593
1.387286865121357 13.083811592618675 573.0965495461301 47.92167586524523 0.3785903729274203
1.4141263657062226 13.081527727276116 512.0386223405137 50.12265480333056 0.38480677888474407
1.4408573688174124 13.078133814003458 457.9457928226285 52.42937957370353 0.3911965623418982
1.4674389117430446 13.073546679342705 409.9888257500015 54.847961169057164 0.3977698795931706
1.4938416629403095 13.06771289523392 367.4251199777764 57.384570747620586 0.4045357602865648
1.5200473615852406 13.06060435233862 329.61959462661565 60.0458159020827 0.4115039415817591
1.5460268103115726 13.052147480503068 296.0160917919196 62.838779931770446 0.41868492636165805
1.5717401822166888 13.042303216087666 266.12227082495906 65.77106487229094 0.4260900461899991
1.5971557722427678 13.031009046179621 239.50618359024895 68.85083866371033 0.4337315295705167
1.6222495280892035 13.018230221121861 215.78072871880465 72.08688688570034 0.44162257613116973
1.6469979087105142 13.003940577543728 194.584065487476 75.48866954177387 0.44977743743226295
1.6713525637284812 12.988056565186612 175.6728928016946 79.06638343557803 0.45821150518105486
1.6952892120725316 12.970558870040772 158.77769736091196 82.82976567507515 0.466936214479802
1.7187541951489549 12.951356075031809 143.65364323129467 86.79148800552726 0.47597298038203484
1.7417685097484754 12.930531292142236 130.11815555707705 90.96373784012827 0.48533869968200694
1.7642495747574776 12.907927884590391 117.98376167570056 95.35956903575469 0.49505127205102806
1.7861795762609662 12.883540739514071 107.10374692492647 99.9936247302778 0.5051321766965455
1.8075247835188932 12.85734033803943 97.33123676612105 104.88186879890058 0.51560502911353
1.82825501308451 12.829293626091934 88.56364480990973 110.04030817644876 0.5264905174747311
1.8483360690537651 12.799369318248429 80.67024836984338 115.4873321477147 0.5378150228993992
1.8677348320994906 12.767531935691254 73.57781768667216 121.24282481913185 0.5496068079273736
1.8864182717577085 12.73375513600375 67.1810416674107 127.32802426221988 0.5618951715587006
1.9043568241554285 12.698005381310473 61.41666568337686 133.76593849687598 0.5747116040198379
1.9214977942347158 12.66020894863627 56.21859378293778 140.58085075256062 0.5880876444642347
1.937853585828962 12.620482700846296 51.5260216871711 147.80097209158498 0.6020637051341393
1.9533668929884949 12.578702029403791 47.28477481757149 155.81732426971277 0.6173020517874366
1.96721173411212 12.535445222637868 43.58678568425833 163.7140078013475 0.7686734115280462
1.9781403873964611 12.489874415384795 40.50215702585753 172.78898781742856 0.9296064378374547
1.9861399859802342 12.4406574189722 37.89321068263685 182.74577025240268 1.0938179703589397
1.9914016606210065 12.387366403516285 35.65636943900795 193.65530487343415 1.2619788527598161
1.9940453645328007 12.329690065266673 33.72454380575551 205.59528676737148 1.434868040355294
1.9943058311515576 12.267692916880392 32.04068943039444 218.65178632033565 1.6133678920486096
