M[M_sun], R[km], Lambda[1], P_c[MeV/fm^3], rho_c[fm^-3]
0.24162668629717493 15.618656898711224 2160425.4255784233 3.5677272577965504 0.1711233750220791
0.25364434270836167 15.277255114755532 1723079.0454164215 3.784826198646589 0.17388825522724688
0.26604062983371773 14.98125896185 1383012.6824374474 4.011415345371006 0.17666682862277827
0.2788165058214614 14.723488030037839 1116452.5796979833 4.247750585307815 0.17945777368495805
0.29197159477578966 14.498358008006814 905841.3803723372 4.494457166371111 0.18226765781117904
0.3055063809406068 14.301208782143217 738606.8073638455 4.751690608613085 0.18509218559937057
0.31942333807835593 14.128114873424677 605075.0042686368 5.020133370835023 0.18793797962224376
0.33372094212179454 13.975965361089523 497683.04343446356 5.300009234561581 0.19080165752564388
0.3484034601460167 13.842006898545254 410994.00842057343 5.592047177267688 0.1936895232096519
0.3634652304625834 13.723989954911127 340635.17367513676 5.8964140328928405 0.19659663140272562
0.37891978609762256 13.619993495241705 283296.18116758415 6.213974085573768 0.1995306670625104
0.3947520278378433 13.528464019028982 236400.44752119886 6.544984644978996 0.2024878065888542
0.41097851045338063 13.447854178926294 197857.88686961003 6.890148356353193 0.2054717652591137
0.42758603990042315 13.377058066275778 166075.37262519234 7.250170255692255 0.2084856151822293
0.44458303804674404 13.314919395603635 139794.15503444796 7.625309257489768 0.21152490197462603
0.4619645005560032 13.260571221028664 117976.36078689975 8.016514505611525 0.2145957895511428
0.47972945420815594 13.213138946226332 99804.4297157247 8.424491003348196 0.21769992456162224
0.49788722327358 13.17197187382729 84639.90738685075 8.84967964741714 0.22083477518623462
0.5164255218507809 13.136397392258699 71936.98817314 9.2929537047276 0.2240037485414751
0.535345960229916 13.105826171195258 61272.1135354585 9.75519809775283 0.22720976471703075
0.5546525136696253 13.079794467482968 52301.67141160411 10.237222484417833 0.23045417476109017
0.574335338698677 13.05783002821914 44726.35122500462 10.739497795030013 0.23373367199765283
0.5943941897683249 13.039533046475366 38324.783460650535 11.26326926331811 0.23705445095923247
0.6148305545709076 13.024495814700149 32898.87503946268 11.809474351054906 0.24041812409112637
0.6356355516357436 13.012425857656371 28290.084085382525 12.37909215844457 0.24382632451411604
0.656806271039683 13.00301234509006 24369.183848402667 12.972811516001828 0.2472770005148211
0.6783386737785766 12.995978090333434 21026.807689750734 13.591959637092817 0.2507749419536533
0.7002276153291169 12.991063329222946 18171.45148166073 14.237734145614196 0.25432278408107234
0.7224572606762728 12.988025077199099 15613.33156745613 14.911324853326976 0.25792251175456143
0.7450498329734541 12.986648364824408 13632.67930052609 15.613760133777067 0.2615740080933785
0.7679726808876287 12.986744160003502 11835.506940914924 16.34630888605402 0.26527919489344653
0.7912173540416566 12.988137896280259 10288.047863340063 17.110586028288562 0.26904275022176616
0.8147931005131563 12.99066782348898 8955.65508442431 17.90804676898653 0.2728671069774529
0.8386754157747907 12.994128555144206 7806.796098107647 18.74005186992176 0.27675330491505834
0.8628550463057648 12.998412397367753 6813.586812900304 19.607955053446748 0.2807019072266762
0.8873371356967805 13.003363955433963 5954.872560114578 20.513837918140197 0.2847192344915495
0.9120937655441571 13.008851476107338 5210.614493246688 21.459494800808862 0.28880830047277606
0.9371147154925216 13.014743861822273 4564.773528147976 22.446403899120092 0.29296897851927245
0.9623988728199568 13.020948634996062 4004.1612387199416 23.476602699089575 0.2972051644550077
0.9879202678513955 13.027339161473641 3516.2645868560808 24.55250802511206 0.3015229119407506
1.0136625210221153 13.033796727211476 3091.562982884746 25.67605489793803 0.30592379774307854
1.0396270186614465 13.04024645893951 2721.1368902380573 26.84921942418508 0.3104091911172116
1.0657785187579507 13.0465794798426 2397.912027610778 28.075091600466216 0.31498777429076813
1.0921110342600926 13.052705979803315 2115.5714991710356 29.35571685685762 0.31965992624622297
1.1186098302060108 13.058542404214212 1868.4072695687032 30.69387041547158 0.3244304647816874
1.145241610416037 13.063994893236098 1651.9121878328895 32.09293265710561 0.32930731529749313
1.1720051848237028 13.069013711833614 1461.9213247540417 33.55486443185819 0.3342883031754086
1.1988615797910265 13.073462684497471 1295.2853134824932 35.084199109945736 0.33938693358292243
1.2258076923009569 13.077337952504076 1148.9627282718516 36.68294845227857 0.34459989703495286
1.252804330831645 13.080492771520136 1020.0566713238342 38.356176684725675 0.3499417038876014
1.2798480752563068 13.082937438910756 906.6235785642554 40.10613542561208 0.3554090008017595
1.3068906473111992 13.084524615642374 806.6664418654543 41.938274688158444 0.36101622250741033
1.3339231001777 13.085242859931226 718.4629192857403 43.85609815476027 0.3667654101030507
1.3609365027080569 13.085035560188846 640.5489860096382 45.86427752709612 0.37266422322071424
1.3878674548680603 13.083775156808631 571.7357484706733 47.968154889660575 0.3787226672346619
1.4147253063060532 13.081479890065369 510.7669831109978 50.172496371144206 0.3849464404504122
1.4414491000180973 13.078026407770508 456.82991194202845 52.48250459156272 0.3913424237367154
1.4680433915564606 13.07343081930966 408.9662093319824 54.904604770362695 0.39792235398075554
1.4944529659604575 13.06756220814216 366.4778244333552 57.444987107054416 0.4046952927619573
1.520665428316276 13.060415394357891 328.8014738777844 60.1102799399443 0.41167101179281396
1.5466488860233099 13.051927031480558 295.25714900339887 62.90758918832582 0.4188600513901699
1.572365124074206 13.042045436062793 265.4306032388747 65.84454157106185 0.4262737837204188
1.5977894283155618 13.03071843986872 238.89107598129857 68.92933198493431 0.4339244813773916
1.6228764618891172 13.017894221810447 215.2046586518882 72.17077547379955 0.4418253919201527
1.6476280826362268 13.003555949342417 194.07235749395392 75.57836427362844 0.44999081907373095
1.671977706951177 12.987621022869739 175.20391496313704 79.16201160603418 0.4584348797951379
1.6959147809821062 12.970066452542056 158.34923364130327 82.93195991119453 0.4671710565367664
1.719395177837996 12.950855408674842 143.2624450480612 86.90092334712611 0.47622079758754376
1.7423772171344125 12.929919336097063 129.76478384573772 91.08045984866904 0.4855983631871832
1.7648595530438667 12.907264797521828 117.66156239195924 95.48470155412335 0.49532584073706254
1.7867857656444763 12.882827576813375 106.81005839222479 100.12727669697576 0.5054205918423533
1.8081242735448542 12.856568693687931 97.07322522951551 105.02473293312974 0.5159084014020205
1.8288341253712166 12.828433094425712 88.31715849202992 110.19361312272244 0.5268118093620102
1.8489137035497782 12.798465556663379 80.45530858725765 115.65158057654953 0.5381543034755966
1.8682900018247657 12.766525377382472 73.37809138864557 121.41878853243591 0.5499650055641536
1.8869686227271856 12.73270373209969 67.00202428283914 127.51667522321567 0.5622737683476735
1.9048920451928817 12.696886629426876 61.25030957892719 133.96769498143186 0.5751099339651837
1.922032874099176 12.659068957212673 56.06782825256667 140.7975482725192 0.5885098536390161
1.9383464635592502 12.619180348614016 51.385057099832764 148.03390761128395 0.602511768195545
1.9538417008953357 12.577334714554562 47.1551014953289 155.7052542290497 0.617151374588856
1.968457926406645 12.533402488156884 43.33254695879154 163.84525732127904 0.6324763424980818
1.9821725511991015 12.487401416877335 39.87437557906097 172.4877258226998 0.6485283442114688
1.9949629658547714 12.439324321312489 36.740504739475035 181.67189544136096 0.6653603555366271
2.006798071496361 12.389162840123724 33.90030742341008 191.4398039835262 0.6830269016079412
2.0176445509978853 12.33688706913543 31.32479067445695 201.83749132573564 0.7015872233542759
2.027480005740163 12.282500569423293 28.989047250189977 212.91487556677487 0.7211038810319405
2.036289888787901 12.22603435911924 26.866997177000677 224.7275229229866 0.7416474518002428
2.0440333329969858 12.167438299019198 24.938345989705237 237.33652954509535 0.7632948314334286
2.0506927974121005 12.10673054328879 23.185050384439904 250.8088075376096 0.7861287474844432
2.0562652406020794 12.04398229831866 21.590526697229883 265.2175319344856 0.8102375831239695
2.0607112974762436 11.979134898960424 20.139885665259083 280.6442792546904 0.835720471726796
2.064016396853039 11.912235221915472 18.81875785879029 297.1789604549462 0.8626849437541189
2.0661770143525158 11.843332739722209 17.616758165457192 314.9219292196822 0.8912513750815434
2.06716834762264 11.77243977723708 16.52153989570961 333.982545781746 0.9215454358629818
