M[M_sun], R[km], Lambda[1], P_c[MeV/fm^3], rho_c[fm^-3]
0.24162668629717493 15.618656898711224 2160425.4255784233 3.5677272577965504 0.1711233750220791
0.25363884201792425 15.277444656328136 1723347.8625356797 3.784741246550777 0.17388719634035482
0.26603039088289415 14.981490473491242 1383264.1478253163 4.0112367613153825 0.17666467053985915
0.2788014087705121 14.723762996704712 1116635.6495000552 4.247472329784979 0.17945454634021527
0.29195064837446216 14.498705214099012 906144.5190857815 4.494071940092123 0.18226336822715616
0.3054806391222411 14.301557929342984 738910.2480436735 4.7511853340895875 0.18508672767018589
0.31939137974595794 14.128477193147269 605303.3938857494 5.019504328568599 0.1879314530659416
0.3336837865889449 13.976283467869676 497952.653876858 5.299239866834782 0.1907939112692469
0.3483587631038104 13.842370231422587 411222.8204247747 5.591135565712966 0.19368070311708427
0.36341263358998793 13.724367149541058 340856.04980442405 5.895339700774195 0.19658654104811438
0.3788592476799095 13.620383129104006 283488.71333472925 6.212724035722196 0.1995192681130221
0.39468562016409525 13.528796861315389 236566.81231048674 6.5435601778065475 0.2024753159361127
0.41090294590139237 13.448220095052587 198023.01554784717 6.888521977789096 0.2054579143367786
0.42750341673778514 13.377359880731891 166217.21013133 7.2483267085909615 0.20847036398952096
0.44448949100505614 13.31523391110197 139927.71114487536 7.623253639561673 0.2115085379341604
0.4618623265751153 13.260848911024318 118088.81879941747 8.014210968872574 0.21457796983213753
0.4796191689361469 13.213416091607838 99916.91076822151 8.421921590716753 0.21768060617060678
0.4977670641787366 13.172223884452542 84730.56175281729 8.846853834632293 0.22081431509429544
0.5162968143574106 13.136613418054244 72020.67011319318 9.289825770468148 0.2239817276892846
0.5352055043118629 13.106048921070668 61347.21752401401 9.75174684050233 0.22718613558303694
0.554502256692556 13.080007389950607 52361.145618645176 10.23342541466423 0.2304288877577729
0.5741722992434365 13.058010990689091 44782.517323085405 10.735371411986653 0.23370717934032095
0.5942255053921647 13.039657938716767 38374.928038846934 11.258751525361243 0.2370262240507236
0.6146485336669618 13.024614392969372 32944.664610591964 11.804538578182308 0.24038810635690577
0.6354394703600766 13.012548536312881 28332.094292458132 12.37371000652413 0.24379445639322347
0.6566009880819398 13.003100026048307 24404.780634162456 12.967007700156437 0.24724382828341554
0.6781215304260595 12.996034018872365 21057.087787356537 13.585651760686632 0.2507398213878049
0.6999994136580456 12.991099728443428 18198.47561470213 14.230888398034773 0.25428564556634714
0.7222203932436402 12.98803412638533 15752.123750455312 14.903905252032892 0.2578832815256798
0.7447972041742865 12.986652922601047 13654.459533008549 15.605800761881689 0.26153332506390936
0.7677050436745847 12.986749440782289 11853.791030671677 16.33770198365963 0.26523629164369616
0.7909384569033041 12.988115798317871 10304.855311405889 17.101288413767637 0.26899753907078733
0.8145009837562636 12.990629189130498 8971.533207344968 17.89801239843195 0.27281949460666327
0.8383690448358019 12.99408574462113 7819.559188249001 18.729325243958147 0.2767040216188609
0.8625393387155055 12.99834622217766 6825.930631272166 19.596396737175965 0.2806500523510178
0.8870016401601408 13.003280352293151 5965.535214644707 20.50139230106978 0.2846646958678235
0.911750066906344 13.008766509359779 5220.047018645064 21.446102465189036 0.28875095836989806
0.9367572082195669 13.014659413460935 4573.779719122035 22.432120622927375 0.2929096539216321
0.9620232936248746 13.020846338835687 4011.848133835702 23.46124928927209 0.2971428096957964
0.9875356743614531 13.02723947165459 3503.7408651317583 24.536012240732706 0.30145738202032796
1.0132699456645329 13.033712789876297 3097.8840502440303 25.658480579111565 0.3058559750621045
1.039216308765979 13.040146806575105 2726.651527123449 26.83035178733746 0.3103379125826881
1.0653581699725265 13.046483730690646 2402.7751034326084 28.05484235977071 0.31491286354439074
1.091675116923767 13.05260841211624 2119.8579466429783 29.33415776278635 0.3195823267449176
1.1181622878213608 13.05844668146464 1872.3002138727566 30.670744158262533 0.3243488854108384
1.1447797053854312 13.063906764330444 1655.3996013941028 32.06824719491026 0.32922229373376105
1.1715312547657286 13.068930885827749 1465.058095121368 33.528466101978104 0.334199338081931
1.1983800616145468 13.073402887486177 1298.0905829554729 35.05589586488246 0.33929334242452525
1.2253110620235181 13.077266783047792 1151.4693040123188 36.65282240340063 0.3445027150646847
1.252296090271794 13.080440502992847 1022.3406867906107 38.32390232128302 0.3498395223916975
1.2793268961348199 13.082900523932105 908.630556378426 40.071754949344175 0.35530263909396165
1.3063608086403158 13.084504379666686 808.4484894033743 41.9016670164557 0.36090555196981494
1.3333877742638407 13.085232282718929 720.1106632758703 43.81685301117171 0.3666487532402118
1.3603873140691034 13.085049696924825 642.0902427668185 45.82247711705966 0.3725426733064848
1.387310572464221 13.08380845717919 573.0660380642943 47.92362073910686 0.3785959086662495
1.4141508574276478 13.081526912497207 511.98233602601107 50.12474034521355 0.38481262280293166
1.440882292735859 13.078129044574998 457.89889103332143 52.43160247543246 0.3912026655971966
1.4674647613215086 13.073543094438659 409.9592058122698 54.85033126464593 0.39777625946424316
1.4938666566830932 13.06770552921545 367.3730918623381 57.38709866722062 0.4045424353870701
1.5200734532623696 13.060594283099672 329.5956162911459 60.048513143221015 0.41151093196990723
1.5460531992043436 13.052140073730584 295.98026754269733 62.84165893769061 0.41869225366061597
1.5717659488256093 13.042294178475196 266.0944526021563 65.77413911818934 0.4260977337203145
1.5971820893472328 13.030994576001113 239.47508240315386 68.85412275175297 0.4337396024958545
1.6222733461625103 13.018224739233721 215.75103972165996 72.09039664981705 0.44163106161882193
1.6470243615513973 13.003926204338176 194.56216126544024 75.49242216334885 0.449786364830059
1.6713786323571755 12.988038976198263 175.64964798080135 79.07039757129492 0.4582209062125019
1.6953156772234548 12.97053787339853 158.76323748955625 82.8340411121072 0.46694603942164953
1.7187794385495831 12.951334089407673 143.63004543505767 86.79606630242768 0.47598334797194936
1.7417949477988923 12.930505454489177 130.10474150451088 90.96862090345057 0.48534956270050805
1.764275883737291 12.90790077483682 117.97120965295998 95.36480385426745 0.49506275841172326
1.7862053162817781 12.883509834889889 107.0891824317711 99.99921586050023 0.5051442421130012
1.8075493945249959 12.857308277163911 97.31904842622178 104.88784520413371 0.5156177200225696
1.8282796181713101 12.829260498950205 88.55484907785817 110.04672670181566 0.5265039781393224
1.8483599188553013 12.799331595485349 80.66318798780121 115.49420285295972 0.5378292154055373
1.8677577556425176 12.767492479448364 73.56197543536636 121.25018545001451 0.5496217914744804
1.88644142221423 12.733711560574708 67.17189077291168 127.33591609846458 0.5619110104110736
1.9043786835193004 12.69795898375411 61.4100278198487 133.77437773700996 0.5747282657002232
1.9215193068232974 12.66015482333258 56.21207338917762 140.58991477077853 0.5881053046185951
1.937875343215835 12.620430556653865 51.52229987012321 147.81071510369182 0.6020824463026718
1.953384379013919 12.578639574850412 47.27959199463129 155.4658724387159 0.6166977221337185
1.9680213061678922 12.534784496390296 43.44729572569956 163.58768128137527 0.631994345987188
1.981761963837478 12.488866959620744 39.97626863341817 172.21070054085345 0.6480168473178572
1.9945733194310393 12.440868253099607 36.83585197223995 181.3738620627379 0.6648174836049984
2.0064296293115818 12.390779843312508 33.98460711946089 191.11882819217706 0.6824498795783072
2.0173167117164597 12.338625124378888 31.406388643866872 201.49143941386004 0.7009730153459031
2.0271707433308817 12.284299436797163 29.061105671223906 212.54217811330747 0.7204517389922683
2.036003269017105 12.227894723556947 26.93352808055447 224.32490360298283 0.7409515147206097
2.04379208420985 12.169431673481316 24.99984562237499 236.90194269652926 0.7625538209347955
2.050492529944892 12.10883712901227 23.242084699568927 250.33830189769705 0.7853357846578022
2.0560868289441525 12.046139302256408 21.64270100530157 264.70828696089706 0.8093901699014089
2.0605763135556665 11.981405483935434 20.18803937123964 280.0929223964756 0.8348151031525064
2.0639254097871227 11.914621088022288 18.862126375542225 296.58147130287074 0.8617169042689842
2.0661198636672826 11.84579979891704 17.657294042979046 314.27288866899113 0.8902123888163384
2.0671530579667965 11.775008888283033 16.559315775402133 333.277675603651 0.9204321497213132
