M[M_sun], R[km], Lambda[1], P_c[MeV/fm^3], rho_c[fm^-3]
0.24162668629717493 15.618656898711224 2160425.4255784233 3.5677272577965504 0.1711233750220791
0.25364391108073336 15.277273426959674 1723231.8551011207 3.7848183264159894 0.17388815710369013
0.2660396887891452 14.98125305978606 1382983.4219449805 4.011398796336344 0.17666662863746094
0.2788147847637946 14.72351669503158 1116353.235962262 4.247724799553664 0.1794574746090682
0.2919693834531151 14.498444799167201 905919.5318529785 4.4944214672226455 0.18226726029287554
0.3055039777619682 14.301230221360884 738667.8309998625 4.751643783876638 0.1850916798028506
0.319421478325684 14.128128386974874 605110.8847175711 5.020075075549894 0.18793737478616063
0.3337181645110563 13.975945142704742 497694.3436238147 5.299937933925069 0.19080093964654332
0.34839922350231717 13.842041637195509 411014.522172921 5.591962693221102 0.19368870580326042
0.36346127857769517 13.724009152816512 340660.403519527 5.896314467330481 0.19659569626189363
0.3789150497784037 13.620031813595505 283312.36497761874 6.213858233560039 0.19952961063164013
0.3947471437372577 13.528458157002966 236409.599741923 6.544852626759479 0.20248664896741692
0.41097185681774634 13.44787702152827 197874.10998740772 6.889997623257226 0.20547048155281578
0.4275798020957014 13.377061334765575 166094.81995568954 7.2499993932010804 0.20848420168062815
0.4445739064786911 13.314943656096432 139811.45189614772 7.625118737814005 0.21152338531550322
0.46195420698440287 13.260594638971693 117976.71744724127 8.016301005548478 0.21459413795554774
0.4797196100564864 13.213175173592559 99816.66499346883 8.4242528579895 0.21769813404144597
0.4978760416588445 13.171995416442654 84644.87681771717 8.84941773481222 0.22083287882706837
0.5164144749926876 13.136411454585629 71943.41997118955 9.292663786205646 0.2240017074970062
0.5353324475918104 13.105855113846923 61280.26048966212 9.754878207511807 0.22720757457911295
0.5546376154836691 13.07983735178426 52301.22192268518 10.236870537201762 0.2304518309299262
0.5743208587519569 13.05784429770173 44732.24598640033 10.73911532003388 0.2337312163897017
0.5943775062146824 13.039521679652673 38330.14868090381 11.262850508518744 0.23705183457166812
0.6148130398883896 13.024509541621445 32903.60968823771 11.80901684254871 0.24041534167607262
0.6356174511038205 13.012435222567376 28294.12604840648 12.378593267983087 0.24382337054667447
0.6567863800345906 13.003023306244033 24371.966623590506 12.972273534575683 0.24727392563359893
0.6783187893599663 12.995980023907675 21029.325073415846 13.591374925032964 0.25077168643355774
0.7002054580884224 12.991067378288864 18173.34069198985 14.23709956766035 0.25431934146470214
0.7224402379311456 12.988010900924435 15731.158207899356 14.910637072766983 0.2579188751994799
0.7450259073499376 12.986658001787108 13635.2197115 15.613022310330082 0.26157023682933517
0.7679463735408362 12.986756156635284 11837.036251652777 16.345511027760953 0.2652752177699653
0.7911908143983962 12.988145787718919 10289.639373816044 17.109724130694566 0.26903855910562957
0.814763316989092 12.990670368494179 8956.798685699921 17.907116562139482 0.27286269321247664
0.8386454383591079 12.994139142283386 7807.910178235325 18.739057479717907 0.2767487362065829
0.8628279738334328 12.998399259907691 6815.207466487201 19.60688355001532 0.2806971000665412
0.8873013672457836 13.003343374047509 5955.8237946545605 20.512684144143133 0.28471417847499886
0.912062569581584 13.008838809277817 5211.545696174708 21.458253245736607 0.28880298449349484
0.9370815601958845 13.014730603529328 4565.602765586286 22.4450797349302 0.29296347869509237
0.9623600011099671 13.020933260118404 4004.9541842770964 23.475179307964844 0.29719938364071946
0.9878836570182847 13.027326354531066 3516.848584117374 24.550978707006173 0.30151683668591733
1.0136256033905364 13.033787320400549 3092.0929866110805 25.6744255727542 0.3059175098634038
1.039590061654807 13.0402349184964 2721.6810418880777 26.84747017249016 0.31040258275929516
1.0657396767171585 13.04656719549877 2398.542935428047 28.073214233745265 0.3149808290949257
1.0920703225736033 13.052699643824843 2115.9252666223824 29.353718028976388 0.31965273169313707
1.1185683393469046 13.05853072946073 1868.7698738799459 30.691726261733365 0.3244229011404382
1.1451994157962386 13.063986981832983 1652.216817874441 32.09065017574218 0.32929947291634376
1.1719610498163548 13.069001944134714 1462.1598228170621 33.55241684883812 0.3342800545682746
1.1988172154375798 13.073463524653631 1295.5445290002326 35.08157487278914 0.3393782559420778
1.2257623683445222 13.077324386208877 1149.1853351855138 36.68015517650192 0.34459088635968715
1.2527571718525652 13.08049565698457 1020.2899251128994 38.35320303417473 0.34993234014709007
1.2797986179209349 13.082937258288725 906.7734468498086 40.102947600613234 0.35539913873619666
1.306842272475881 13.084522970058144 806.8286226311069 41.9348803140695 0.361005960800294
1.3338791420860527 13.08523734352738 718.6664296132507 43.85245917387497 0.36675459316991726
1.360886087155545 13.085036669452233 640.6832850749772 45.86040156448859 0.3726529524479613
1.3878161724296196 13.083777113729989 571.8649480793879 47.96402538947353 0.3787109133440979
1.4146731586393497 13.081487337564438 510.8760737630617 50.16806805069339 0.384934031808498
1.441396186155735 13.078037311769517 456.930250205949 52.477784480875286 0.39132946408124036
1.4679901943887614 13.073439154335496 409.06154113359133 54.89957196868454 0.3979088065837676
1.4943986464534256 13.067575338279354 366.56034385999476 57.43961902061209 0.404681118056194
1.5206110420873014 13.060433075118402 328.8665277475563 60.104552130360794 0.411656167138527
1.546593686627492 13.051947950320553 295.323495398842 62.901475205911545 0.41884449081884245
1.572309211354142 13.042069648998565 265.4903078451253 65.83801277129507 0.42625745765289236
1.597733588835208 13.030744316976705 238.9470368238891 68.92235732624222 0.43390733631363343
1.6228205170909746 13.017924930590192 215.2597143499408 72.16332129451871 0.44180737009756255
1.647571740146749 13.003590949037829 194.11981286585953 75.57039404575859 0.44997185809050955
1.6719212784432909 12.98765680492862 175.2496222630981 79.15352728222292 0.4584150859647532
1.695861681328361 12.970110800331238 158.3822904768887 82.92287871101611 0.46715018796520513
1.7193391303481438 12.95090306162941 143.29294666144523 86.89119852156865 0.47619877564236135
1.7423250618956097 12.929965409935892 129.78825530616993 91.07008734989954 0.48557528819540063
1.7648048336404252 12.907322283150007 117.69163444045499 95.47358145698074 0.49530144076093463
1.7867318147799063 12.882888642490068 106.83486115744736 100.1153993187775 0.505394960975487
1.8080711700927128 12.856637912013786 97.09607912245586 105.01203668188165 0.5158814408858828
1.828782087295888 12.828507847964886 88.33957974273146 110.18003081635852 0.5267834123724022
1.8488622544759303 12.798546812578556 80.47331877317151 115.63698338115537 0.5381241507070171
1.8682495895214823 12.766641915254585 73.38930855244887 121.40314988877444 0.5499331710165825
1.8869197417334618 12.73279706225564 67.01537222945511 127.49992277545225 0.5622401705031557
1.9048435547234803 12.696987091585509 61.263295614923216 133.94976339344944 0.5750745314427977
1.9219873829469358 12.65917454400437 56.08115516229273 140.77828838447792 0.5884723280529464
1.938302755467182 12.619292442039194 51.398700417935544 148.01320408227147 0.6024719439274248
1.9537996412674412 12.577454175358353 47.16642866694466 155.68304857034443 0.6171092926427918
1.968417588797805 12.533534911583175 43.34459854988843 163.8214149635258 0.632431804775655
1.9821347108751965 12.4875368594228 39.883271161486476 172.46202722954686 0.6484808945690379
1.9949241719030726 12.439468908645363 36.74773576107454 181.64424745095357 0.6653099943387389
2.0067641441893675 12.389313028657456 33.906630733450385 191.41002704827048 0.6829733712543113
2.017613219126324 12.337046533491582 31.33079453462553 201.80538738336176 0.701530242023355
2.027451552527889 12.282668019880537 28.995474849435002 212.88030685510182 0.7210434051390487
2.036264060516561 12.226209513390593 26.873017669830983 224.69016946751924 0.7415828854632078
2.0440116665749892 12.167621637665295 24.94504239520113 237.29620936410706 0.7632260818209686
2.050673556973538 12.106923602475533 23.190406658216627 250.76522931919573 0.7860554219413814
2.0562499700215757 12.044185059688868 21.596443544711406 265.1702827783466 0.8101589577830361
2.0606985658804415 11.979342689096347 20.143568739643477 280.5931795621529 0.8356366563376851
2.0640077878296026 11.91245249343896 18.823031831636204 297.1235209905663 0.8625951218881184
2.066171440640214 11.843561594766252 17.620134188925718 314.8617047883689 0.8911549676122448
2.0671672908673244 11.772678939388387 16.52519548825974 333.91713916044694 0.9214421313292839
