M[M_sun], R[km], Lambda[1], P_c[MeV/fm^3], rho_c[fm^-3]
0.24162668629717493 15.618656898711224 2160425.4255784233 3.5677272577965504 0.1711233750220791
0.2536398061747412 15.277412965329384 1723244.1597110704 3.7847601614352717 0.17388743210526522
0.26603280726755574 14.981424968581347 1383178.9585969925 4.0112765231945895 0.1766651510387035
0.27880414001678727 14.723731081153623 1116580.550212236 4.247534282853341 0.17945526490244698
0.29195516693132156 14.498628865104656 906113.3573555612 4.494157708998573 0.1822643232838354
0.30548624688454995 14.301486163211361 738843.2755592522 4.751297829871046 0.18508794283932706
0.3193977824888246 14.128411965537689 605254.4014275487 5.019644378793705 0.1879329061410815
0.3336923335703209 13.97619715864258 497843.198550071 5.299411157204208 0.1907956358790449
0.34836786341400483 13.84230593551917 411178.21597478737 5.59133852276135 0.19368266678235893
0.3634258010175842 13.724262195557474 340813.0176867134 5.895578882496376 0.19658878749346537
0.37887253519075015 13.620329397172823 283445.3376221365 6.21300233489134 0.19952180586635065
0.39469950373868035 13.528741438168407 236532.54769792515 6.54387730434761 0.20247809670746086
0.41091971427580176 13.448141155029083 197984.60822149136 6.8888840515310585 0.20546099790870348
0.4275206015501214 13.377311092426712 166195.58341805186 7.24873712517237 0.20847375926071818
0.44451080291663775 13.31514595751917 139898.5940747288 7.62371126359427 0.21151218091571117
0.4618854495492231 13.26078052255281 118062.80011384425 8.014723779385413 0.21458193683604385
0.4796440516650699 13.213354569512886 99885.87359553087 8.422493584096543 0.21768490676119073
0.49779358130282714 13.172172615850604 84708.21541868639 8.847482900998118 0.22081886980356338
0.516324887860656 13.136568347729504 71995.01811647072 9.2905220860743 0.2239866297945621
0.5352364868228121 13.105989286398232 61327.47996793162 9.752515123621148 0.22719139565594432
0.5545359164555722 13.079941139732805 52347.11569108551 10.23427067013995 0.23043451682950594
0.5742082830010034 13.057957839223324 44770.387087749754 10.73628996676135 0.23371307674650715
0.5942616099483958 13.0396436660602 38028.70654009621 11.259757187396662 0.23703250744531967
0.6146890303025875 13.024586791993434 32934.015880886436 11.805637284673683 0.24039478832552463
0.6354825614732071 13.012499791210756 28321.97311190906 12.374908064912475 0.24380155018584035
0.6566464317971323 13.003072014823926 24395.96356075887 12.968299609017686 0.24725121230469427
0.6781707122192691 12.99602567285511 21050.927135540827 13.587055857188258 0.25074763902094593
0.7000498403153809 12.991079205382976 18192.65997926125 14.232412205820609 0.2542939122979548
0.7222732284315392 12.988038401627058 15747.212589575905 14.90555677795108 0.25789201376575666
0.7448529955775408 12.986653761779765 13650.183298500324 15.607572419983995 0.2615423806049411
0.7677639311959331 12.986755005923586 11767.469029190313 16.339617754299876 0.2652458412798459
0.7910008307211731 12.988125576090965 10301.460971844517 17.103357905405673 0.26900760230783444
0.8145641864364448 12.990646959900984 8967.933110946116 17.900245856290606 0.2728300922045027
0.838438208806031 12.994100449150523 7816.83592073143 18.731712764282296 0.27671499103941416
0.8626100632543672 12.998359459857593 6823.235559318573 19.598969347327472 0.28066159403030727
0.8870756692333897 13.003299365405772 5963.216279582848 20.504162374490964 0.2846768347590618
0.9118259593484328 13.008798092544177 5217.946070167869 21.449083222269618 0.28876372110852866
0.9368362712910573 13.014678773201812 4571.450793124471 22.435299651081724 0.29292285779472116
0.9621060095194216 13.020875084984592 4010.170386135584 23.46466646056445 0.29715668784375515
0.9876204573081099 13.027278246676184 3521.5106673903033 24.539683628100164 0.3014719666994495
1.0133582295815642 13.033734113800271 3096.585370943402 25.662391976661965 0.3058710698985441
1.0393086941408693 13.04016809150366 2725.4543190065265 26.83455098416729 0.3103537763921637
1.0654526836005243 13.046509204433727 2389.4383448211033 28.059348997890808 0.31492953555843345
1.0917720663532984 13.052633990128703 2118.831253856114 29.338955876961162 0.3195995970098898
1.1182610048475283 13.05846828593911 1871.4013197050247 30.675890996932345 0.324367041217753
1.1448835666560957 13.063936190070997 1654.5485363524076 32.073766887767555 0.3292413829788749
1.1716370861146221 13.068944964947285 1464.423283410879 33.534341032483724 0.3342191372034656
1.1984834478378115 13.073411776633748 1297.4673667389302 35.062194660029306 0.3393141708324686
1.2254215468282863 13.077284150923406 1150.8375450313883 36.65952679423275 0.3445243423916918
1.2524087915860636 13.08045471847573 1021.8970727662862 38.33108939187928 0.34986228945578396
1.2794432410386427 13.082907825808903 908.1737188759702 40.07940597495433 0.35532630881115695
1.3064796183568448 13.084506239721193 804.7295732214641 41.90981360119709 0.3609301803296904
1.333508134282747 13.085224970186411 719.7959497160041 43.8255864248419 0.3666747134622286
1.3605053337339268 13.085049470430764 641.7244447898584 45.831779071487 0.37256972212638445
1.3874347255141342 13.083799950630235 572.7833693596878 47.933530936677585 0.3786241162876171
1.414283937200403 13.081528143487578 511.7028677658769 50.135367370406286 0.3848424008986441
1.4410103302111408 13.078115922873433 457.65662832570536 52.442929469359015 0.391233765278661
1.4675920034677408 13.073520614521255 409.7292243141105 54.86240834368858 0.39780876878901067
1.4939974230128108 13.06767323720961 367.2078820738443 57.39998000537228 0.40457644921678376
1.5202052777989192 13.06055395908297 329.42089066187174 60.06225733518514 0.41154655252872413
1.546184954618636 13.052092174094062 295.8190540620009 62.856329398195356 0.41872959114895386
1.5718997695667256 13.042239112353485 265.97048266128394 65.78980452154188 0.4261369069898431
1.5973154856824818 13.030930514513958 239.34384420099994 68.87085751615909 0.4337807397923715
1.622407824622526 13.01814940818384 215.61789092568634 72.10828147153902 0.4416743014004245
1.6471589702144267 13.003842509871735 194.4537783467791 75.51154460640802 0.4498318566689271
1.6715126869438819 12.987947141058905 175.55911864614043 79.09085271913924 0.4582688117896177
1.6954480555955145 12.97043344216633 158.66626412746837 82.85582787832436 0.46699610534696323
1.7189135325610605 12.95122180952147 143.55241571183115 86.8193964925002 0.4760361793737917
1.7419271780573253 12.930378609339751 130.02464019207966 90.99350423220932 0.48540491894777216
1.764406521656442 12.90776188544784 117.9033746451108 95.39147980601697 0.4951212914063123
1.7863343538720822 12.883359236830632 107.02459414396577 100.02770765580007 0.5052057261711768
1.8076766536484399 12.857139724988258 97.26741809245922 104.91830045795598 0.5156823918178979
1.8284046679787325 12.82908492769439 88.49491168526244 110.07943513911766 0.5265725729143931
1.8484829243109242 12.799137189729684 80.61666605165217 115.52921574280546 0.5379015399539392
1.8678788894465017 12.767283747752352 73.52212072104138 121.2876951728379 0.549698147524369
1.8865588304853873 12.733487344236192 67.13266393274299 127.37613304811654 0.5619917255081285
1.9044926630187755 12.697720089730154 61.372793923408935 133.81738446880058 0.5748131743422497
1.9216470192909796 12.659962906926333 56.17996144725956 140.63610565385017 0.5881953020243238
1.9379818972128695 12.620156086577772 51.48998277917743 147.86036647120915 0.6021779531784011
1.9534798644797724 12.578319455689133 47.25529881441736 155.51912445327312 0.6167986400319062
1.9681191369412356 12.534476287075705 43.42117337555647 163.6450234973858 0.6321017155037876
1.981853654894073 12.488543057192354 39.95325349000484 172.2723244755556 0.648130629175463
1.9946585061970414 12.440523937896927 36.81355840351293 181.4401580815402 0.6649382427224931
2.0065117189570882 12.390417160731948 33.9677043675661 191.19022635851184 0.6825782329182195
2.0173850697246207 12.338223223493179 31.386420296364392 201.5684141089562 0.7011096378367712
2.027243258103668 12.283907024511182 29.04591938492582 212.62514453819503 0.7205970139314968
2.03607652200397 12.22751034586045 26.91823700717356 224.41445760428226 0.7411063109438342
2.043846176809484 12.168989331995096 24.98599420892105 236.99860533132804 0.7627186396067083
2.0505327931862434 12.108356139267798 23.229061390094735 250.4429802915634 0.7855122487684717
2.0561258732295626 12.04565370408884 21.631431471350986 264.8215505816439 0.8095786471468094
2.0606059333330795 11.980899851384487 20.177582359523036 280.215631559426 0.8350167334844633
2.063948085516461 11.914092189056259 18.854058652174448 296.714356042929 0.8619322013583144
2.0661331694078484 11.845251971663624 17.648433530646113 314.417235327571 0.8904434594259221
2.0671572188649625 11.774437806938382 16.551165955540668 333.4344351526337 0.9206797389070669
