M[M_sun], R[km], Lambda[1], P_c[MeV/fm^3], rho_c[fm^-3]
0.24162668629717493 15.618656898711224 2160425.4255784233 3.5677272577965504 0.1711233750220791
0.2536332327182823 15.27753650278932 1723421.9236205865 3.784623193106319 0.17388572486112053
0.2660174739046589 14.98175540373805 1383499.429978002 4.010988601920562 0.1766616716800264
0.278780122996612 14.724173227124579 1117176.5970855919 4.247085681693659 0.1794500618050222
0.2919216109092564 14.499173762621098 906517.2875853457 4.4935366706789015 0.18225740787801037
0.30544369644155434 14.302038499472122 739322.9884344043 4.750483283919441 0.1850791441884654
0.3193460615481369 14.128998029405428 605695.4394362133 5.018630340184106 0.18792238509912396
0.3336288191663368 13.976877287154823 498279.94452653313 5.298170948759402 0.19078314903788368
0.3482943558740022 13.842924038721405 411559.0117940197 5.589869063536723 0.19366844936012637
0.36334048486376824 13.724877500357387 341153.3030778112 5.893847182512621 0.19657252300075115
0.3787765716966088 13.620874510109186 283779.78061005793 6.210987460848504 0.19950343264114628
0.39459118232785406 13.529303036028614 236826.72674622096 6.541581363668602 0.2024579644093699
0.4107966807894449 13.448704059253457 198243.5587899023 6.8862627522932005 0.20543867382440836
0.4273872777645579 13.377821502157936 166421.35351385974 7.245765896898149 0.20844917905066612
0.4443617953102181 13.315653309361908 140101.36227276787 7.620398332686809 0.2114858078554802
0.4617225462645006 13.26125099691283 118246.33502812072 8.011011401611597 0.21455321859263485
0.47946675129930666 13.213810738760143 100048.78535885672 8.418352843981332 0.21765377418417284
0.4976007394801185 13.172571121205372 84856.29753600576 8.842929077771752 0.22078589817770553
0.5161151021538911 13.136928888458485 72135.35344997527 9.285481539071096 0.22395114402941807
0.5350117954999599 13.10631713010538 61445.19466172674 9.746953716429877 0.2271533193184885
0.5542945935516074 13.080260839126527 52450.04085863377 10.22815219384621 0.23039377016421497
0.5739504213392973 13.05822306599398 44860.580603005415 10.729641011947304 0.23367038839701254
0.5939881018506382 13.039854907387467 38444.625444269295 11.252477841828597 0.23698702596248117
0.6143950915827449 13.02478370885256 33005.0593134202 11.797684596748365 0.24034642271417186
0.6351684662363447 13.012662116606391 28151.628794855216 12.366236405567598 0.24375020464739647
0.6563120665971613 13.003189142795152 24452.599438644855 12.95894879648408 0.24719776689473333
0.6778207861956289 12.996117183121687 21099.702991232167 13.576893219519937 0.25069105617714227
0.6996815393887015 12.991149604958343 18236.52975140394 14.22138331906624 0.25423408004904735
0.7218856381395792 12.98806352647293 15785.98599469738 14.893603724087201 0.2578288134642406
0.7444459029332158 12.986663240114074 13685.053331714667 15.594750095191854 0.2614768413859878
0.7673357369919264 12.986726404820978 11881.452530092318 16.325752674780208 0.2651767273359224
0.7905516214777711 12.988082620214884 10328.961549458156 17.088380572059446 0.26893477260752235
0.8140914196224701 12.990564018950796 8992.716082468854 17.884082165926216 0.27275339664948295
0.837947435931834 12.994014946665725 7839.510599067727 18.71438348241668 0.2766351545504417
0.8621014717833279 12.998273916956592 6842.655531221186 19.580351817828625 0.2805780689169074
0.886540987329788 13.003191808699967 5980.748929393399 20.48411621378267 0.2845889893746317
0.9112709398709299 13.008667050937019 5233.753302079722 21.427512816249987 0.28867136287646156
0.9362658099095885 13.01454597805283 4585.482786168387 22.41229479791577 0.29282730873164686
0.961507529028599 13.020720228334746 4022.3391986497504 23.439938769573125 0.29705626134332647
0.9870027108244531 13.027108250004426 3532.4571160992905 24.513116862377306 0.3013664295510684
1.012713688393362 13.033571286892192 3106.2745872581227 25.634051229524832 0.30576156591676124
1.0386410463822968 13.040004826188328 2734.3358401915666 26.804165965972647 0.3102389872648408
1.0647700235350557 13.046344345741057 2409.679195025995 28.026740002637542 0.31480890070551376
1.0910682326174608 13.052471317290204 2125.8675217787963 29.304238381010187 0.3194746353411174
1.1175360077869454 13.058318488723364 1877.53296378358 30.638650996372302 0.3242356747026856
1.1441406953772058 13.063789058377457 1660.2145784974673 32.03382990540872 0.32910326535800954
1.1708731358861777 13.068809633554629 1469.4594302611479 33.49183447591061 0.3340758857252048
1.1977004979746733 13.07328733296864 1301.999102610288 35.01662228181484 0.33916347533241303
1.22461970545316 13.077176337761635 1154.8818452949906 36.61102071170335 0.3443678692780321
1.2515932405690704 13.080385203242795 1025.4335700350596 38.27909223627987 0.34969757386575484
1.2786052105600811 13.08284773442557 911.5114530383028 40.02405315084887 0.35515506566555843
1.305625378715607 13.084468704139377 811.0389970774671 41.850873197511866 0.3607519857864997
1.3326463445364263 13.085252495878235 722.4598165569238 43.76240536391233 0.36648690667430733
1.3596242864967356 13.085068332538135 644.1760077058472 45.764486185269526 0.37237404355431164
1.386535991367439 13.083857244548645 574.9363211806847 47.86179801143671 0.37841984303684506
1.4133637413167135 13.081605495338408 513.6675722796717 50.05849176250426 0.3846269869734355
1.4400856584941042 13.078256445940792 459.4253624078507 52.36099189029749 0.39100879538591593
1.4666516026847727 13.07368822968722 411.329702786165 54.77504649705599 0.39757360640956124
1.4930515831538043 13.067909408868061 368.65280481790217 57.30680227353709 0.40433040866832254
1.5192460068264642 13.060827613391744 330.7306537389693 59.96284015660879 0.4112888949329824
1.5452237619503395 13.052431545663776 297.00165484258275 62.750214383300616 0.418459519999529
1.5709322217384905 13.042637220701037 267.0097196830181 65.67649527805253 0.42585356327788126
1.5963491447730933 13.031401490789282 240.29986646570276 68.74981615128448 0.43348319664226675
1.6214429865616349 13.018687802667591 216.4930793598067 71.97892473437554 0.44136155816201117
1.6461765755043254 13.004438752051039 195.24875133315572 75.37323962938808 0.44950283240619165
1.6705387996235004 12.98861823425771 176.26077099762324 78.94291231221264 0.457922338098667
1.6944719608145153 12.971178760777883 159.3173207106889 82.69825982736127 0.46663401442476266
1.7179656675880572 12.952090525806627 144.13875036435408 86.65067014635727 0.4756540972147197
1.740968563346205 12.9312934862793 130.56536113594314 90.81354930837776 0.4850045854812733
1.7634565975597165 12.908761222556272 118.39023589318113 95.19856575638318 0.49469799490580163
1.7853944265603243 12.884452218172935 107.46442367844956 99.82166659722444 0.5047610985056088
1.8067424660887499 12.858309922612907 97.67348806832476 104.6976940632597 0.5152133178949436
1.8274940434319884 12.83037316919563 88.86969157920191 109.84291332130235 0.526076549189916
1.84757893455631 12.800503313764537 80.95305165696757 115.27603632737744 0.5373785586471646
1.8670055489434283 12.768782615955896 73.83225001373448 121.01646815316349 0.549146028705926
1.8856967440214008 12.735067458180092 67.41831520781638 127.08533832955355 0.5614081028282644
1.9036535304874846 12.699418693122572 61.630156739476746 133.50567591505092 0.5741965976808439
1.9208362704644175 12.661777467951904 56.41912349030387 140.30213327483798 0.587544596826731
1.9372119459693615 12.622126977049021 51.70689544754678 147.50138453824195 0.6014874335698738
1.9527585222020247 12.580472592114791 47.450609199313355 155.13412021092762 0.6160690184531936
1.96741653979587 12.536706908941051 43.59976883394004 163.230460841672 0.6313254742797644
1.981199957307931 12.490937107230494 40.11800410766763 171.82681977490552 0.647308053456189
1.9940456065804442 12.443052732343498 36.96545985381965 180.9608916891921 0.6640652523434263
2.005926549593292 12.39304390541748 34.10886829585337 190.67409204167845 0.681650372066748
2.016835706785309 12.340978047501553 31.515400927431177 201.01198571592454 0.7001220323262749
2.0267457976730676 12.286808368830878 29.16286539924476 212.02474705323812 0.7195446794823481
2.0356254808069827 12.23055008934384 27.026000435720285 223.76714039953262 0.7399874077449874
2.0434523833091007 12.172199417295918 25.084332530329608 236.2987928181727 0.7615236269901032
2.05020348264403 12.11173090232341 23.322584987489808 249.68639533654476 0.7842368175519424
2.055842009564005 12.049155879137286 21.716182676649023 264.0029444781781 0.8082164390306301
2.0603803733704718 11.984551355446882 20.25484009337034 279.3287926092188 0.8335595184923377
2.0637886714724374 11.917910943759823 18.92518356953748 295.7531257920196 0.860373365866571
2.066040452455103 11.84922665863643 17.71462122149779 313.37410173994147 0.8887736077207132
2.0671313827344737 11.778567130702942 16.611316930799443 332.3012542757601 0.9188892906022952
