M[M_sun], R[km], Lambda[1], P_c[MeV/fm^3], rho_c[fm^-3]
0.24162668629717493 15.618656898711224 2160425.4255784233 3.5677272577965504 0.1711233750220791
0.25364481282840223 15.27728801467436 1723190.866050204 3.7848449652332636 0.17388848914369648
0.26604244673722893 14.981220466081004 1382871.9575830768 4.011454796761607 0.17666730536955105
0.2788196374574432 14.723439781184808 1116471.42324614 4.247812056492478 0.17945848665806505
0.29197504388282053 14.498343139077845 905814.3809267369 4.494542270698456 0.1822686054676157
0.3055121838389661 14.301146287763865 738574.4281580263 4.7518022361130265 0.18509339138941422
0.3194304347904705 14.128041327166121 605035.9020640714 5.020272344094847 0.1879394215234532
0.3337299735276764 13.975849580684503 497606.5967688422 5.300179212766527 0.19080336892412283
0.34841355031285254 13.841919264513889 410940.1817498991 5.5922485851302515 0.1936914718861276
0.363478858763514 13.723854309264665 340607.41335627454 5.896651395791098 0.1965988607652974
0.378933179868528 13.61991243333023 283251.9939610618 6.214250276387389 0.19953318559017527
0.39476760296387103 13.528352665742355 236348.93990048414 6.545299377268682 0.20249056636585225
0.4109952416596429 13.44779368506001 197825.2364125489 6.890507706617128 0.20547482563675687
0.4276056468159937 13.376961602555927 166038.9771692179 7.250577596565642 0.20848898500888233
0.44460333133859503 13.314832428087035 139765.4808295781 7.625763463417413 0.21152851774586354
0.46198494684439445 13.260480885787324 117944.01952948073 8.017023499827907 0.21459972703291066
0.47975441119285567 13.213099025141323 99781.56780230679 8.42505875555271 0.21770419326449716
0.49791419604708687 13.171910215621471 84619.10813823932 8.850304064460223 0.22083929623241944
0.5164558200586639 13.136326781225163 71918.97931775819 9.293644892669247 0.22400861454767484
0.535375457001406 13.105792281161197 61255.79152596071 9.755960743791904 0.22721498619550634
0.5546860647781265 13.079768234381335 52287.1704745962 10.23805802338603 0.2304597171996
0.5743709021317395 13.057798935681221 44714.21350873035 10.740409655694158 0.23373952642557572
0.5944305359258256 13.039485997661881 38314.65989545616 11.26426762302666 0.2370606887287581
0.6148705911978578 13.024496939552483 32889.475501570276 11.810565108621644 0.24042475771702096
0.6356793382012211 13.012416222057558 28050.072521051952 12.380281580737007 0.24383336717176823
0.6568514557898639 13.002992759996658 24167.821566456954 12.974094140939949 0.24728433147300227
0.6783870325876823 12.99596360371889 21019.601887443205 13.593353680359058 0.2507827036130732
0.7002776867030771 12.991056226786975 18165.327973499036 14.239247083112266 0.2543309918408383
0.7225158416977181 12.987999831431944 15722.275460968436 14.912964641354643 0.2579311819319865
0.7451050726532551 12.986658264111897 13628.104998383253 15.615519238777171 0.2615829994712786
0.7680298089279695 12.98675424393804 11749.433641569552 16.348211132942556 0.26528867711708587
0.7912784404771699 12.988148372339907 10285.487854924899 17.11264096570987 0.2690527426865858
0.8148551679662266 12.990677198212492 8952.053500427366 17.91026457871761 0.2728776303260459
0.8387421869711646 12.994137377345433 7804.007076180962 18.742422714462375 0.27676419771901456
0.8629253661181485 12.998419166889422 6810.776712964841 19.610509763612615 0.28071336860001905
0.8874111484029699 13.003368697869833 5952.389289777618 20.51658879187191 0.2847312892467716
0.9121697950955531 13.0088642994733 5208.5744754295765 21.462454978272657 0.28882097509544713
0.9371940375151181 13.014763307608566 4562.914567681849 22.449561048267604 0.29298209151942306
0.962480621375819 13.020968084885192 4002.4212178526086 23.479996445463016 0.29721894746741057
0.9880042003949571 13.027366485816271 3514.6786005220138 24.55615434564564 0.3015373970412409
1.0137500388640899 13.033812120115767 3090.5407090601643 25.67993967685358 0.3059387898530798
1.0397174142587065 13.04027663243418 2719.9842120018734 26.85339016067203 0.3104249474086367
1.0658712479962738 13.046601136350816 2396.859209088255 28.079567821169004 0.3150043337775577
1.0922078887594282 13.052736222855081 2114.598867312445 29.3604826955353 0.31967708033922276
1.1187094310485846 13.05855952788256 1867.3619620632505 30.69898278012843 0.32444849897928746
1.1453432162263062 13.064018508855881 1651.0803352076498 32.0983748601073 0.3293260141709715
1.172109297052265 13.069027792560567 1461.2113757516825 33.56070031965363 0.3343079707189844
1.1989692100187865 13.073488548787692 1294.6240382489445 35.090456231777246 0.33940762418850967
1.2259176419684878 13.07734567399155 1148.3777889235685 36.689608648158966 0.3446213817958868
1.2529161448646016 13.080513923583034 1019.5479396252216 38.363266987781614 0.34996403057220166
1.2799611291042534 13.082945627755146 906.1712735327325 40.11373643805378 0.35543251579491997
1.3070149550677317 13.084549946311169 806.2824137429492 41.946368226119525 0.3610406904988323
1.3340470502797057 13.085237765233432 718.0987799784032 43.86477497583927 0.3667912021026189
1.3610587819200297 13.0850281514857 640.2306247910517 45.87351944782795 0.3726910974707824
1.3879977981265503 13.083779771986519 571.3972545480914 47.97800139173275 0.37875069355807933
1.4148419502813756 13.081453363243645 510.49321800770576 50.18305544408746 0.38497602813643306
1.441575551787581 13.078008543645423 456.58148751328383 52.49375947052653 0.3913733254175113
1.4681716165301166 13.07340374494584 408.74994040210595 54.916605299563884 0.39795465724711704
1.4945826893014353 13.06753065808345 366.28915461155776 57.457787168592816 0.40472909197663254
1.5207955573566168 13.060377048579788 328.63653540317006 60.12393781536942 0.41170640864671154
1.5467800728825 13.051881690508065 295.0911732766959 62.9221679562856 0.418897155513691
1.5724976169576377 13.04199218360744 265.28345702316847 65.86010954505164 0.42631271335583204
1.597911365556864 13.030648359412785 238.7523554330865 68.94596319565403 0.4339653641188637
1.6230197880239017 13.017833040408105 215.08149217767107 72.18855020118163 0.4418683655288358
1.6477621934681106 13.003471081932172 193.95663347085664 75.59736963422448 0.4500360323761939
1.6721103244851983 12.987527562227298 175.11998131327633 79.18224294102156 0.45848207926820195
1.6960468887214577 12.969964572568015 158.2498524757904 82.95361464897188 0.4672208190611099
1.7195267859263728 12.950740593922246 143.18042807441353 86.92411298320168 0.4762733107037369
1.742507776373939 12.929791174005244 129.6875466255555 91.10519403470593 0.48565338764678867
1.7649894913585114 12.907125641917109 117.59110531832071 95.51121861413158 0.49538402508769236
1.7869000149143586 12.88264782247352 106.74918311346995 100.15559972168468 0.5054817117009155
1.8082511496871447 12.856406483700411 97.0169207216048 105.05500882074527 0.5159726923128329
1.8289561556750535 12.828253283134398 88.27505753071146 110.22600210532275 0.5268795261089066
1.8490358334764003 12.798271022742655 80.41029113869673 115.68638993709595 0.5382262076026986
1.8684076207855067 12.766319297680994 73.33108240646277 121.45608161402457 0.5500409206118784
1.8870823227040476 12.732485217013338 66.95774433430084 127.55651962936953 0.5623535137719594
1.9050043097469207 12.696649461811479 61.21401289096978 134.01045648645302 0.5751943584534249
1.9221423716954897 12.658814917760848 56.034878362989296 140.84347767719206 0.5885993415853886
1.938450584050087 12.618909680040105 51.35441939628987 148.08328002457782 0.6026067384889465
1.9539423622621555 12.577046904285558 47.1303542424684 155.75820915057693 0.6172517294660126
1.9685525895144647 12.533097833823668 43.3100594351904 163.90211572574697 0.6325825544701542
1.9822637460848023 12.487079252063747 39.85095306805425 172.54901136501755 0.6486415012645359
1.995046256352375 12.438978178877342 36.720753308404326 181.7378303291117 0.665480456848904
2.0068783269620685 12.388800537008072 33.88071719764613 191.51081648800198 0.6831545616389042
2.017717887364063 12.336506123578019 31.306052083770695 201.91405388642724 0.7017231143472296
2.0275478449644098 12.282105798230289 28.971797655990574 212.99731677903245 0.721248107000484
2.0363510490485575 12.225613746545537 26.851566818567818 224.81660605119345 0.7418014341081169
2.044087236380276 12.166999542180596 24.9252950424254 237.43268867198069 0.763458791578096
2.0507390541070794 12.106268938315482 23.172490871138898 250.91273755880363 0.7863036221241564
2.0550291860562457 12.0492170734856 21.776783822426598 266.38689737512993 2.0049479242830723
