M[M_sun], R[km], Lambda[1], P_c[MeV/fm^3], rho_c[fm^-3]
0.24162668629717493 15.618656898711224 2160425.4255784233 3.5677272577965504 0.1711233750220791
0.25364437245091154 15.277259108462696 1723112.2007695565 3.784826844320049 0.17388826327525506
0.26604074827586427 14.981242488106249 1382908.124242604 4.011416702710491 0.1766668450254249
0.27881591188799415 14.723485944589115 1116408.886447456 4.247752700239418 0.1794577982149775
0.29197132814259213 14.49839984426185 905889.7888577066 4.49446009439759 0.18226769041543345
0.305507981180516 14.301165056155787 738645.8301313801 4.751694449160638 0.18509222708461395
0.3194237575347981 14.128111382397964 605083.124630095 5.020138152199639 0.1879380292307471
0.3337240061139425 13.97589484112498 497664.1664941998 5.300015082630522 0.1908017164059944
0.34840380726839254 13.842003969666724 410992.18395981484 5.5920541066477965 0.19368959025331065
0.36346709880499534 13.723961810647893 340631.16482381476 5.896422199270498 0.19659670810307278
0.37892077696217613 13.619980444178347 283281.600181724 6.213983587781529 0.1995307537112038
0.3947520763670278 13.528474238826636 236401.79800511562 6.544995473156774 0.20248790153734517
0.4109790914708561 13.447871034981715 197857.93309119102 6.89016071954874 0.20547187054927502
0.427586492684338 13.377053963668155 166068.56360681565 7.250184269929409 0.20848573111842175
0.4445837213681877 13.314906605686193 139799.30738162436 7.625324884039882 0.2115250263720128
0.4619652851739523 13.260571725117309 117975.323280711 8.016532017052404 0.21459592501629537
0.4797303220125745 13.213163601223954 99805.73731753249 8.42451053624223 0.2177000714216789
0.49788828326506207 13.171965200381182 84634.49510447068 8.849701129747817 0.22083493072748742
0.5164264560634392 13.136393589609424 71934.2382446794 9.29297748416351 0.22400391595018637
0.5353464593469504 13.105831106752545 61271.42007009379 9.755224335537568 0.22720994435479355
0.5546537453306909 13.079811507264575 52300.8520305413 10.237251351593411 0.2304543670052184
0.574336578730594 13.057831405034488 44726.92203761824 10.73952916617074 0.23373387341009386
0.5943941573752902 13.039512773245288 38323.2229951699 11.263303610225595 0.23705466555933197
0.614830888672536 13.024525842510535 32898.54488372331 11.80951187665063 0.24041835230935846
0.6356371482729667 13.012423874533878 28289.90937893339 12.379133078310497 0.2438265668036786
0.6568078355615706 13.003021826159326 24369.132152356422 12.972855642226437 0.24727725272222614
0.6783403240882399 12.995972618740021 20863.71452296186 13.592007596313481 0.2507752089777449
0.7002294070069286 12.991059486696754 18170.408571460466 14.237786195001679 0.2543230664515397
0.7224629056744666 12.988000184193028 15728.137040964873 14.911381266576608 0.2579228100326774
0.7450522590828845 12.986654041596436 13632.908950464951 15.613820651719218 0.26157431742095566
0.7679737940711823 12.986754118370179 11835.042880956225 16.346374328276696 0.2652795211065131
0.7912196365665193 12.988143151183186 10288.059153573593 17.11065672326041 0.26904309398747495
0.8147945565312438 12.990666691534907 8955.271565653673 17.90812306695446 0.2728674690058552
0.8386774839018479 12.99412782567579 7806.650010100102 18.740133432463715 0.276753679652737
0.8628582797832154 12.998403076731583 6813.503299336336 19.60804294114011 0.2807023015233284
0.8873407936001774 13.003358228121408 5954.737719900966 20.513932554022496 0.2847196492006593
0.9120965728135273 13.008847111700709 5210.580813255893 21.459596636887596 0.28880873650537475
0.9371177179200614 13.014741944791394 4564.753423842316 22.446512511167008 0.292969429631881
0.9624016354264826 13.020950310511298 4004.060846640346 23.47671945019754 0.2972056386159473
0.9879231310133121 13.027337252336757 3516.1958756134886 24.552633464864947 0.3015234102533398
1.0136654565961414 13.033798941455622 3091.7041578700955 25.67618854075384 0.3059243134964429
1.0396303136602973 13.0402513717641 2721.1466171645206 26.84936290398454 0.31040973315805764
1.0657816199803898 13.046582778669537 2397.8152947917083 28.075245588931107 0.31498834396105907
1.0921147725204965 13.05270279357781 2115.5528035210136 29.3558808081984 0.3196605163703831
1.1186089050102237 13.05855546747329 1868.2778689979775 30.694046287237025 0.32443108518073627
1.1452443489061406 13.06399695244171 1651.8844737875693 32.09311987525669 0.32930795856062
1.1720082714570028 13.069014271429422 1461.8831255381233 33.555065192596565 0.3342889797597962
1.1988659644386441 13.07346409368678 1295.2587830056084 35.084414360898144 0.33938764535946736
1.225811443355062 13.077336564569135 1148.9083665369856 36.68317756876793 0.34460063612928105
1.252807963655983 13.080499814605183 1020.0426457425443 38.35642059663121 0.3499424719428089
1.2798523956696022 13.082938543618269 906.5753288599053 40.106396905453494 0.3554098097330341
1.30689444865399 13.084522426867165 806.6486956597253 41.938553110446776 0.3610170642201687
1.3339297040710922 13.085239995348513 718.4849742343221 43.85639664130666 0.36676629735943245
1.3609403648519522 13.085034941482627 640.5284011524869 45.864595452431814 0.37266514770440357
1.3878729509676782 13.083770070173742 571.7348904586631 47.96849361183896 0.3787236313473235
1.4147293873334295 13.081480500773745 510.7395510742588 50.17285960465462 0.3849474582707375
1.4414534916713733 13.078028148567519 456.8113270863197 52.482891759742316 0.3913434867554772
1.468047713780464 13.073427691055755 408.95129595987504 54.9050175876818 0.397923465210735
1.49445743948189 13.067561882347333 366.47899650658496 57.44542742686429 0.4046964554488503
1.5206699788894105 13.060415464343528 328.78958117813045 60.11074976691165 0.411672229434358
1.5466534545097594 13.051926360968693 295.247897554734 62.90809069210965 0.4188613277571711
1.5723690963081847 13.04204557128646 265.423929734394 65.84507710136762 0.4262751228798733
1.597794659516037 13.030715317634726 238.8887502798787 68.9299040881033 0.43392588771793694
1.6228809764680285 13.017891403645521 215.2028640951001 72.17138691110591 0.4418268701800986
1.6476332643368152 13.0035523184735 194.0715919432783 75.57901804147967 0.44999237437195583
1.6719820282815123 12.987619364522985 175.2010223647895 79.16270754423303 0.4584365034109938
1.6959191650922076 12.970065587486548 158.34437956112117 82.93270481029113 0.46717276831272087
1.7193985556576343 12.950852416314977 143.25515289195923 86.9017210419909 0.4762226039739392
1.7423817263489851 12.929914609371739 129.7585387568547 91.08131067132427 0.48560025595441453
1.764864490389474 12.907261381576653 117.66396215941504 95.48561370158295 0.4953278421922615
1.7867909425310389 12.882824986734816 106.81013408937483 100.12825096349542 0.5054226942672354
1.8081289365158484 12.856563275259651 97.07053882363785 105.02577437119231 0.5159106128979294
1.8288382927749731 12.828426254918055 88.31801153066642 110.19472724338813 0.5268141386919574
1.8489176419646398 12.798458124082309 80.45269309859378 115.65277794838144 0.5381567768326201
1.8682938957281292 12.766518620632043 73.37750347423314 121.420071334114 0.5499676168782759
1.886972551292555 12.732695959327572 66.99822657520912 127.51804578001521 0.5622765114085957
1.9048951261900573 12.696878249234587 61.24614223779388 133.96916587347687 0.5751128379627884
1.922035329810678 12.659060043051628 56.065590836688095 140.79912812563097 0.5885129317936656
1.9383497439932145 12.619170150401269 51.38501794199282 148.03560588725202 0.602515034913864
1.9538457172451094 12.577323823998912 47.15753001140901 155.70707572582165 0.6171548265075734
1.968461321223916 12.533392252774448 43.331944625657435 163.84721307804242 0.6324799958679693
1.98217558066783 12.487389713697006 39.87373604609675 172.4898338489649 0.6485322364514805
1.9949651067991507 12.439313267586677 36.74019050588393 181.674163379494 0.6653644866173831
2.00680117756702 12.389150322605026 33.898708700813906 191.44224656259462 0.6830312926616269
2.0176466199679868 12.336874322991124 31.3242590845069 201.84012479370685 0.7015918975001546
2.0274824048426168 12.28248741475149 28.989412044401423 212.91771122481163 0.7211088418460236
2.0362915609646675 12.226019682970765 26.865905911986193 224.73058702037463 0.7416527481655238
2.044035222597882 12.16742238314636 24.938061902456145 237.33983701064426 0.7633004709660185
2.0506949011811133 12.1067142474491 23.184263421663367 250.812382269284 0.7861347623962699
2.056266704926465 12.043965511596436 21.590941178255136 265.2214078051895 0.8102440327980042
2.0607125132018953 11.979114417089663 20.139325290681303 280.6484709976845 0.8357273471609259
2.0640197714669455 11.912216627422323 18.843523876300367 297.18350820564876 0.862692311925128
2.0661779469613046 11.843313369918015 17.617046168505183 314.9268695006027 0.8912592834996187
2.0671687510525665 11.772418850677305 16.521374670570868 333.9879111797949 0.9215539100806149
