M[M_sun], R[km], Lambda[1], P_c[MeV/fm^3], rho_c[fm^-3]
0.24162668629717493 15.618656898711224 2160425.4255784233 3.5677272577965504 0.1711233750220791
0.2536413448902108 15.277379980108556 1723233.4420367235 3.784788136586317 0.17388778080202733
0.26603631248446175 14.98133699948834 1383144.225175075 4.011335331608336 0.1766658617036773
0.2788089194528615 14.723639188015216 1116529.0292958294 4.247625913145457 0.17945632767575165
0.29196224683461364 14.498538244329273 906015.9092362337 4.4942845646198215 0.18226573585061964
0.30549465574975404 14.301376001185126 738794.7337020495 4.751464216998509 0.18508974013785826
0.3194083485068383 14.128307399894556 605209.2597554161 5.019851522023451 0.18793505533204005
0.33370473160118164 13.976118440949406 497788.7544085836 5.299664508675145 0.19079818670797113
0.3483832742344033 13.842133863456432 411081.1986391711 5.591638713945593 0.19368557121464625
0.36344284056321796 13.724141063451512 340734.87378374545 5.895932655961277 0.19659211020871414
0.37889433490505936 13.620129063596492 283379.939630386 6.213413970201173 0.19952555948473516
0.39472252800220825 13.528587472514355 236460.18253892224 6.5443463730412414 0.20248220980622325
0.4109446556152649 13.448028905401761 197931.40975818768 6.889419606761865 0.20546555892178606
0.42754863108012053 13.377200722354273 166138.68230664087 7.249344190586168 0.20847878135730902
0.4445421544158743 13.315056735515062 139855.92778057355 7.624388160332898 0.21151756944899383
0.46191919990026953 13.260680223118774 118026.13415907728 8.015482311232425 0.21458780469312713
0.47967948750911116 13.213276700027459 99848.88563317368 8.423339663627713 0.21769126809646763
0.4978332936153145 13.172090500271896 84678.17377731849 8.848413407773199 0.22082560707018992
0.5163677874209807 13.136504094704348 71966.76045346874 9.291552074740826 0.22399388097898676
0.5352827046368077 13.1059378926317 61304.69180435833 9.753651574949394 0.22719917640329623
0.5545847951410096 13.079905480278152 52325.01565349602 10.235520988955592 0.2304428434650672
0.5742627516063157 13.057909629789133 44752.03858028591 10.737648720026673 0.23372180036335963
0.5943165144730237 13.039581417859274 38347.83041322512 11.261244803230408 0.23704180209596926
0.6147486770703418 13.024560718700428 32919.67355181756 11.807262547560745 0.24040467263556922
0.635546719619913 13.012461622380608 28310.249276860708 12.376680307224465 0.24381204376407528
0.6567135783537917 13.003071056288816 24384.153978138598 12.970210692577787 0.2472621352746471
0.6782414021637792 12.9959992875795 21040.14793997803 13.589132911874296 0.25075920350496156
0.700124727195494 12.991079178622632 18183.26091041862 14.234666363745195 0.25430614121470985
0.7223536621436775 12.988014900460762 15739.518396022566 14.907999886289462 0.2579049314004783
0.7449372451844191 12.986654556087196 13642.623527225987 15.610193256187381 0.26155577658114343
0.7678525010974897 12.986757487334648 11843.078417899127 16.342451798764507 0.2652599682806992
0.7910923409977199 12.988120666905886 10295.74909527488 17.10641937544819 0.2690224891999505
0.8146616522779141 12.990654064736042 8962.405745813263 17.90354991156157 0.27284576971051216
0.8385384781069628 12.994105680054236 7812.335971534343 18.73524475241894 0.27673121869740225
0.8627142880988322 12.998385562022708 6819.447697566802 19.602775177083863 0.280678668388213
0.887184805910765 13.003331621097127 5959.8425127899345 20.508260355063385 0.2846947927453321
0.9119406146540852 13.008812121257836 5215.022750979995 21.453492916280652 0.2887826021412939
0.9369541068070711 13.014701396081414 4568.541432686189 22.440002693386027 0.292942391554947
0.9622281276098701 13.020902638289156 4007.688936295456 23.469721849217724 0.2971772192791784
0.9877474644637563 13.027293748659819 3519.2336868979223 24.545115147357205 0.3014935435469944
1.0134848985038942 13.033753278823063 3094.28139368894 25.668178607228963 0.3058934016203443
1.039443113946315 13.040205781672563 2723.5676315596143 26.840763441094097 0.31037724593575894
1.0655932921657465 13.046543427731214 2400.1481938796674 28.06601634764498 0.31495420098436
1.0919160623374315 13.052659774372769 2117.424073109637 29.346054496155006 0.3196251476804132
1.1184092056902795 13.058502109220074 1870.1358693074023 30.683505600727127 0.32439390222605313
1.1450351018662372 13.063962896594846 1653.464167487641 32.08189921411046 0.3292694054741122
1.17179281282794 13.06897671194997 1463.381647609416 33.54303295452271 0.3342484298769116
1.198643048236631 13.073435402330556 1296.5241031171731 35.07151376369862 0.33934498658188833
1.225585718035371 13.0773006774337 1149.9923841951224 36.66944604560968 0.3445563403611666
1.2525760838908437 13.08047657632965 1021.089558250338 38.341722865091555 0.34989597396783134
1.2796136221119412 13.08291670722239 907.5261084651656 40.09072596087753 0.3553613290658404
1.3066535931043646 13.084513427778191 807.473384461686 41.92186687049167 0.36096661918883016
1.3336869875837052 13.085233501352175 719.2114511191746 43.83850804939061 0.36671312321295946
1.3606910100783733 13.085039548587716 641.2338006751592 45.84554198713204 0.37260974281552944
1.3876178575798188 13.083793267142939 572.3239309649447 47.9481939005887 0.37866585181621587
1.4144708359956346 13.081509324273012 511.30196110794134 50.151091084714636 0.3848864604789252
1.441199295923242 13.078086038097585 457.30209059208795 52.45968898404017 0.3912797806267279
1.4677832983184236 13.07347993698125 409.39927239666224 54.88027783064689 0.3978568702341453
1.4941900656826428 13.067624748438906 366.8854764062383 57.41903964269612 0.4046267771602556
1.5203998272109194 13.060493996175385 329.1562909404463 60.082593844713706 0.4115992582705883
1.5463818418153659 13.05202216533584 295.58236793779054 62.878036636706334 0.4187848377967663
1.572096558465154 13.04215762772135 265.7232990315472 65.81298413152935 0.42619487045807763
1.5975197326600659 13.030848385540843 239.16106861685768 68.89561964289622 0.4338416099023565
1.622606343570517 13.01804721363491 215.45032103675484 72.13474555394528 0.44173828309179103
1.6473578625743912 13.00372104854179 194.29367053990796 75.53984025016962 0.4498991713348769
1.671707215371395 12.987808563233562 175.4125145228435 79.1210029109866 0.45833920697876185
1.6956457100420617 12.970281215841366 158.52310637292578 82.88806650607641 0.4670701896196433
1.7191107579858333 12.951055981638845 143.42817489199086 86.85391931790636 0.4761143565877834
1.7421141798194977 12.930172864043804 129.91617043582704 91.03032562886163 0.4854868330018547
1.764600095828338 12.907554630889393 117.79686644259262 95.43095426670197 0.4952079071872739
1.786526286607576 12.883132182689677 106.93040062138475 100.06986954524065 0.5052967096994477
1.8078668729867706 12.856901531757387 97.18370239314977 104.96336828017976 0.515778093432856
1.8285919719380959 12.828817329666371 88.42367612579983 110.1278377746888 0.5266740809096905
1.8486664741338894 12.798852724857214 80.5463290286792 115.58102907667362 0.5380085684223038
1.8680569812634575 12.76697482361343 73.45617451343198 121.3432039862798 0.5498111431268259
1.886732712738764 12.733155960045384 67.07556119962129 127.43564879296306 0.562111173133151
1.9046626016953718 12.69736633420455 61.321815129579626 133.8810293383539 0.5749388290763044
1.9218110951458396 12.659583988441105 56.13284809509673 140.70446347296496 0.5883284890511242
1.9381398080343024 12.619754787987302 51.44677336839984 147.93384632466766 0.6023192953323792
1.9536336273568755 12.577912552898065 47.21178983630703 155.59793382107088 0.616947991672812
1.9682627566379363 12.534023207477194 43.38272458359673 163.72988715574334 0.6322606171055855
1.9819891852126372 12.488059232330048 39.92133488941615 172.3635259392938 0.6482990227064939
1.9947893824038183 12.440016713282214 36.78191673390884 181.5382752798168 0.6651169645596259
2.0066297776736923 12.389881397590154 33.940900682296494 191.29589600548547 0.6827681965099007
2.017494915421539 12.33765862036555 31.360026461737924 201.68233854622756 0.7013118424752087
2.0273439959737884 12.283314063947474 29.020734732538116 212.747812332402 0.7208116138984809
2.036167601910837 12.226883571538654 26.896563663501045 224.54700326217025 0.7413354192689582
2.0439253140196745 12.168331985136623 24.96660283614538 237.1416741704547 0.7629625851199467
2.0505994627025643 12.107664805972487 23.20937917819043 250.59791549001395 0.7857734344916772
2.0561817750335285 12.044936809026385 21.61383182159709 264.98919530672464 0.8098576177092969
2.0606509325905646 11.980151593583606 20.160251174906204 280.39725969210514 0.8353151768916568
2.0639794271660117 11.913309684151843 18.83904833339023 296.91104852634584 0.8622508784250281
2.066151574459725 11.844437857357349 17.634771318334128 314.63089699481253 0.8907854897311601
2.0671626470954476 11.773587812116608 16.538520057635512 333.66647416244507 0.9210462259879187
