M[M_sun], R[km], Lambda[1], P_c[MeV/fm^3], rho_c[fm^-3]
0.24162668629717493 15.618656898711224 2160425.4255784233 3.5677272577965504 0.1711233750220791
0.25363886233903526 15.277424739104557 1723255.5212184424 3.784745050025945 0.17388724374883793
0.2660315177466185 14.981441378862074 1383295.8990004982 4.011244756758964 0.17666476716007626
0.278802048979438 14.723745036480485 1116691.584048811 4.247484787468505 0.17945469083057083
0.2919512635118338 14.49870776901012 906132.7798835166 4.494089186680102 0.18226356027191604
0.3054824548591739 14.301512106737517 738917.3736263294 4.75120795491136 0.18508697201823351
0.3193920114613549 14.128477711083832 605288.8665889582 5.019532490007544 0.18793174525173997
0.33368444039901196 13.976300502771247 497932.1435925548 5.2992743099823265 0.19079425805459116
0.34836032854185583 13.842309966906473 411207.28966542246 5.59117637631083 0.1936810979708452
0.3634162604629049 13.724328307819375 340832.80857875996 5.8953877953046305 0.19658699276212213
0.3788618646918259 13.62039835843276 283472.3632591701 6.212779995824505 0.1995197784017748
0.39468885529177006 13.528772991699547 233442.9599184997 6.543623945126831 0.20247587508936618
0.4109062595689557 13.44820749213116 198016.12250676547 6.888594782841405 0.20545853437515552
0.4275070583226729 13.377350417888692 166222.50284562653 7.248409234117614 0.20847104670205346
0.4444947216856685 13.315200781913383 139923.44418479333 7.623345657237801 0.21150927045402956
0.46186802764708534 13.26082838615002 118085.50195395616 8.014314083028955 0.21457876750350136
0.4796255313576818 13.213385071751931 99906.74744029183 8.422036604877933 0.21768147091631201
0.4977722495081157 13.172228045055148 84725.03654946024 8.846980324532181 0.2208152309352156
0.5163022269192394 13.136611847528286 72016.26655787871 9.289965782212771 0.22398271338069545
0.5352111300637828 13.106031618351834 61338.74079969782 9.751901322752667 0.22718719325029496
0.5545098746022328 13.079989280384519 52361.15972533784 10.233595373696785 0.23043001961862847
0.5741810477286482 13.057971698448876 44779.633064860005 10.73555610923464 0.23370836515386506
0.5942325767011556 13.039656398487947 38372.75477298156 11.258953737112908 0.2370274874734073
0.6146552215094359 13.024644380902249 32942.73681072537 11.80475949816364 0.2403894499189891
0.6354482713968979 13.012517757076727 28327.382215305253 12.373950902898699 0.24379588275853253
0.6566096829847016 13.003091373940757 24404.11468147645 12.967267466745815 0.24724531300271813
0.6781313704304134 12.996031184992852 21055.801633694246 13.585934084394786 0.2507413932905728
0.7000088088679897 12.991101224714859 18197.08228154537 14.231194791541087 0.25428730776607245
0.7222313069056462 12.988018772126093 15752.081189266064 14.904237325163788 0.25788503732149876
0.7448067778104619 12.986666709283321 13653.364362949469 15.606156989354256 0.26153514586245413
0.7677168456264826 12.98674933988527 11852.718407964674 16.3380871869452 0.26523821178546236
0.7909510543682342 12.988110409904898 10304.342206455723 17.1017045246912 0.26899956247730167
0.8145138277975167 12.990627196495224 8970.693526172088 17.898461476836715 0.2728216254515833
0.8383829742100191 12.994092579155994 7819.156415474272 18.729805298565697 0.27670622722139565
0.8625535745542431 12.998348871978727 6825.390716654578 19.596914006241217 0.2806523730110891
0.8870158918436186 13.003284550451284 5965.115361506764 20.501949272302777 0.2846671366021262
0.9117652740583958 13.008779529071115 5219.698231953286 21.446701796572487 0.2887535245333234
0.9367733723632741 13.014657125579516 4573.314614322633 22.432759818795024 0.2929123087773634
0.9620389952325713 13.02085688854864 4011.2911700399204 23.46193636605546 0.297145600118764
0.9875522183181735 13.027244634388172 3522.717063054049 24.536750429896777 0.30146031449544197
1.0132879663653054 13.03371301417793 3097.6279370506277 25.659267024466036 0.3058590101061882
1.0392344894737373 13.040156615096446 2726.415505297724 26.83119609696329 0.31034110223242006
1.0653770115167644 13.04648816376686 2402.5633664245515 28.055748482660107 0.3149162156869711
1.0916940458831683 13.052610866030838 2119.6313468080803 29.335122489062478 0.31958579916716673
1.1181798196718733 13.05845670247938 1872.0755042595254 30.67177899770034 0.3243525358740112
1.1448015372081923 13.063918887742902 1655.0959250985582 32.069356998697224 0.32922613186698063
1.1715528886003095 13.068933739118295 1464.9009130232864 33.52964732828077 0.33420331893636046
1.1984015779342396 13.073407116259798 1297.9476231309682 35.0571623109766 0.33929753021842424
1.2253334805427099 13.077273305245914 1151.3412234915309 36.654170396314484 0.34450706348116
1.2523189249564703 13.080446213986528 1022.2193456676517 38.32534735845104 0.34984409995266214
1.2793499273416864 13.082895526756094 908.5476808577954 40.073293266189125 0.3553073981323615
1.3063850003430497 13.084502431602854 808.4443156904207 41.90330496681969 0.3609105037419137
1.3334115918522462 13.085228435022769 720.0344640744705 43.81860894425954 0.36665397278145057
1.3604115353190416 13.085046948091357 642.0194431572133 45.82434735611498 0.3725481117076048
1.3873359282943516 13.083806298397361 573.0238721725594 47.92561326600087 0.3786015800409915
1.4141830597389073 13.081538841280668 511.9147912091768 50.126876989896616 0.38481860991679673
1.440907553205319 13.07812688455651 457.85461586238813 52.43387984854443 0.39120891841050404
1.4674889718578836 13.073537607592117 409.9057221738369 54.85275944159912 0.39778279567990305
1.4938931841876952 13.067698005909214 367.34316721329805 57.389688539129324 0.40454927407580304
1.520100216375089 13.060584721477035 329.5581796763346 60.05127648989084 0.4115180936824939
1.5460795488506862 13.05213153759031 295.9495536248421 62.84460850788832 0.4186997605512704
1.571793278945334 13.042280922245261 266.06178177195693 65.77728871799961 0.4261056096823627
1.5972106726349466 13.030980330074735 239.4597133665295 68.85748734193503 0.433747873311064
1.622301336328203 13.018210634636594 215.72686204095777 72.09399245317775 0.4416397551218615
1.6470517617261715 13.003907666840218 194.54043347245855 75.49626678328013 0.44979551108976457
1.6714061689975226 12.988020334392605 175.63658498473254 79.07451012276753 0.45823053773182476
1.6953409280192144 12.970516450871006 158.7421145164844 82.83842137695024 0.4669561052575014
1.718807020526158 12.951312426880985 143.61842366887836 86.80075686025368 0.4759939697776269
1.7418213541928604 12.930480415263645 130.08573771712435 90.97362370752012 0.4853606920980968
1.7643018691615926 12.907873647455256 117.95648106187934 95.37016704805306 0.49507452645643185
1.7862301622775123 12.883482979626915 107.07944802103421 100.00494411233834 0.5051566034319547
1.8075750924811338 12.857274214808912 97.3069509559357 104.89396818905597 0.5156307221938863
1.8283056138264109 12.829223435556566 88.54335579884112 110.05330266229139 0.5265177689702796
1.8483848881745193 12.799291469563824 80.65254692605656 115.50124209582738 0.537843756052246
1.867782631487002 12.767450943143814 73.55577113621615 121.25772664888768 0.5496371425918452
1.8864650135156467 12.733666316315864 67.164644428025 127.34400154790606 0.5619272378435878
1.9044016922338372 12.69791090058174 61.400720432826 133.78302403343926 0.5747453361740259
1.9215414176459364 12.660106670687691 56.20645686247795 140.59920119122904 0.5881233980970799
1.9378974711999635 12.620376422593456 51.51497215583103 147.82069719729432 0.6021016473563564
1.9534018813575256 12.578566544708636 47.27577529497289 155.47657838203676 0.6167180109679916
1.9680415241852351 12.534721606565384 43.440518976853966 163.5992094841179 0.6320159317863052
1.981781660071806 12.488801102061682 39.97333819380316 172.22308950261075 0.648039722181161
1.9945896017751703 12.44079847325091 36.83073068553367 181.38719025432826 0.6648417610907861
2.00644659074174 12.390705602524179 33.983285918929056 191.13318206391267 0.6824756837056751
2.0173315617579393 12.338548878052114 31.402593342614015 201.5069143240791 0.7010004817850678
2.0271887228445453 12.28422872955356 29.05842490991586 212.5588793775944 0.7204810164009285
2.0360149318167013 12.22781171831183 26.92984532307301 224.3429072885444 0.7409826345197099
2.0438034324192307 12.16934257024328 24.997259202589024 236.9213753965782 0.7625869554734972
2.05049464972244 12.108726714262163 23.239981778359667 250.35934595308854 0.7853712601784171
2.0560942787448804 12.046042380009112 21.64032569327066 264.73105684190784 0.8094280603063131
2.060582159248358 11.981304024888946 20.185858197081092 280.1175910340166 0.8348556375792494
2.0639290026892056 11.91451533400938 18.86019833625115 296.60818544165306 0.8617601859604807
2.0661224005029593 11.84568947741191 17.655091154247547 314.30190686923896 0.8902588412474944
2.067153762756824 11.774893818891929 16.557424044707833 333.3091890172306 0.9204819226407884
