M[M_sun], R[km], Lambda[1], P_c[MeV/fm^3], rho_c[fm^-3]
0.24162668629717493 15.618656898711224 2160425.4255784233 3.5677272577965504 0.1711233750220791
0.25364500936853207 15.277269127206367 1723268.812849703 3.7848388121772825 0.173888412448822
0.26604182537588217 14.98122668279923 1382971.1809408325 4.011441861687529 0.17666714905681458
0.27881783294460066 14.723470972538523 1116462.4872174973 4.247791901660645 0.17945825289238845
0.29197365246180174 14.498379534474548 905868.024405352 4.494514367100501 0.1822682947545764
0.3055108029529938 14.301141778051258 738554.1345487973 4.751765636142075 0.18509299603987586
0.31942856311453743 14.128033644085201 605073.9178855589 5.020226778010051 0.18793894875773653
0.33372591093841864 13.975911321098847 497642.375361154 5.300123480762045 0.1908028077953138
0.34841026202171227 13.841949319168183 410958.48017301253 5.592182547917252 0.1936908329579256
0.36347404606225875 13.72390757286383 340632.1344701687 5.896573569544545 0.19659812980472
0.3789282212620724 13.61995277749161 283261.60553660494 6.214159719099874 0.1995323598167512
0.3947630140361551 13.528375576798062 236381.49444026087 6.545196182822698 0.20248966148996983
0.41098964455930687 13.447803052683724 197830.87079487077 6.890389882580007 0.20547382219781382
0.427600831248615 13.376970289223364 166045.63853575016 7.250444037053351 0.2084878801052655
0.4445962744546869 13.314864159386559 139773.35966506044 7.62561453744632 0.21152733219937456
0.4619795780596931 13.260508983955722 117957.32491488825 8.016856609419001 0.21459843600067266
0.4797459222379194 13.21312681158308 98721.10385855046 8.424872599035746 0.21770279362773165
0.4979057678692837 13.171924670440314 84620.62127087686 8.850099328117675 0.22083781385382228
0.5164454241975878 13.136353821757318 71925.4537275531 9.293418262763705 0.22400701905901108
0.5353657529789729 13.105802227652577 61261.93515018117 9.75571068337343 0.22721327414951675
0.5546741779318236 13.079791867985817 51806.14273299047 10.237785577747474 0.23045791940260227
0.5743594319584956 13.057819008381314 44718.72714735046 10.740110668885064 0.2337376068376468
0.5944181036193947 13.039494391238462 38319.29097255251 11.263940273700037 0.23705864344424155
0.6148579418303379 13.024474575145513 32893.463049720376 11.81020746251693 0.24042258263198493
0.6356638117357739 13.012414222188353 28284.337306686724 12.37989158290143 0.2438310579656448
0.6568366371314963 13.00302064071604 24364.146464651007 12.973673582334076 0.2472819277324693
0.6783703959554203 12.99597052927591 21021.302957335953 13.59289658801029 0.2507801586453376
0.7002612343867163 12.991049233113225 18166.939653543795 14.238751005599877 0.2543283005961225
0.722498316580432 12.98799811811729 15724.140090932755 14.912426969725743 0.25792833905940765
0.7450878739202027 12.986653703706157 13629.701000400812 15.614942443253986 0.26158005127516765
0.7680111043954435 12.986755449710348 11832.442861357997 16.347587401185667 0.2652855679707151
0.791258093898029 12.988147961513162 10286.851052515685 17.11196716659876 0.26904946622967596
0.814835738151302 12.990666015560189 8953.382226451853 17.909537373511554 0.2728741797893408
0.8387201576678769 12.994132575321963 7804.990869539167 18.741645328889174 0.2767606260345358
0.8629035403096026 12.998422895538482 6769.510281690521 19.609672087943053 0.28070961047758414
0.8873869847726334 13.00337174505664 5953.288148808307 20.515686793419487 0.284727336549696
0.9121452017279709 13.008860834341732 5209.234436769516 21.4614843481611 0.2888168191383913
0.9371673971769289 13.014755702682885 4563.6392488211395 22.44852583025092 0.29297779181314554
0.9624537410855618 13.020962985244788 4002.970213651196 23.478883645786727 0.29721442805728016
0.9879763414681293 13.027357327875029 3515.132602152749 24.554958725173393 0.30153264740869234
1.013721891918967 13.03380243288789 3090.610448054656 25.67866586428543 0.3059338739650569
1.0396877919443437 13.040269892056397 2720.366511224191 26.85202258024184 0.310419780936031
1.0658419543928048 13.046593377141331 2397.232564810052 28.07810006967627 0.3149989039265588
1.0921760567366026 13.052723391212819 2114.802457927335 29.35891997572924 0.31967145550743575
1.1186769928033795 13.058555072671783 1867.6123841931656 30.69730643077057 0.32444258554830285
1.1453099307733425 13.064017459909886 1651.3727076565033 32.096590353331216 0.32931988278145574
1.172075678005425 13.069019789544582 1461.433464356349 33.55878671884365 0.33430152168695426
1.1989331251662372 13.073480391735986 1294.8599108081673 35.088404502835 0.3394008396771226
1.2258818043520192 13.077348156292476 1148.5571378999784 36.68742474608832 0.3446143368658677
1.2528793842824002 13.0805004914447 1019.7046745053026 38.36094204776936 0.34995670955898706
1.2799239310765853 13.082945367413219 906.3037776918356 40.11124402858177 0.35542480511267377
1.306969940663641 13.084523877335641 806.431434006659 41.943714310085774 0.36103266730859573
1.3340078512674018 13.085238047630957 718.2782559103589 43.861929791322304 0.36678274474281336
1.3610185367696646 13.08503370759174 640.3109933311672 45.870488957637 0.3726822852169681
1.3879487177922187 13.083781342719988 571.5520386623531 48.42765927426322 0.40327682401031073
1.4072058456838075 13.07661686677047 525.0067842361658 50.47082968143183 0.7718782096891336
1.4141079154170657 13.054151165407948 502.0943900893062 53.61898535871396 1.1274615395641563
