M[M_sun], R[km], Lambda[1], P_c[MeV/fm^3], rho_c[fm^-3]
0.24162668629717493 15.618656898711224 2160425.4255784233 3.5677272577965504 0.1711233750220791
0.25363559643552913 15.27747655793014 1723408.368869266 3.7846653159899173 0.1738862499025438
0.2660215005416662 14.981665596124909 1383439.9067035818 4.01107714690605 0.17666274169392035
0.27878726657266045 14.72406558254681 1116966.661328785 4.247223638505656 0.1794516618961449
0.2919321296564701 14.498995378184974 906429.113402481 4.493727653316947 0.18225953451400978
0.3054564444280845 14.30186377153576 739201.9453043168 4.750733770064767 0.1850818499168949
0.31936186197935224 14.12881932252674 605589.1928739925 5.018942168567198 0.18792562043895325
0.33364753705972566 13.976671234419866 498149.7195922621 5.298552320625072 0.1907869888197606
0.3483170799332007 13.842685116645013 411421.1820775236 5.590320924483526 0.19367282123908935
0.36336591980776406 13.724705896475358 341044.11638088786 5.894379674284111 0.19657752427615627
0.3788071742239168 13.620675863888815 283665.278137619 6.211607017725629 0.19950908225387062
0.39462437797564304 13.52911976403325 236745.3903291272 6.5422873358349465 0.20246415483154703
0.41083522268994266 13.448510891613253 198161.53065081176 6.887068755344768 0.20544553808462157
0.4274261655827324 13.377695837984348 166349.65389384129 7.246679482641579 0.20845673691138955
0.4444067919708292 13.315537810324475 140043.00768888736 7.621416970030451 0.21149391686371724
0.4617727476789444 13.261120837477696 118193.25013365922 8.012152840593986 0.2145620485459774
0.47952093651329397 13.213678398625095 99997.65016822657 8.419625971374295 0.21766334632236847
0.49766001159568346 13.172460501122693 83933.32749900344 8.844329194405917 0.22079603562036068
0.5161793392302865 13.136809946467526 72093.55833197988 9.28703128019271 0.22396205430352933
0.535080272930957 13.10625439032495 61410.354842571454 9.74866357285015 0.22716502590062143
0.5543689404437956 13.080170738343547 52416.90726142627 10.230033293094355 0.23040629755138842
0.5740299395776126 13.058128863855922 44833.71889224097 10.731685178186288 0.23368351257747028
0.5940730378791746 13.039783037964384 38419.966445386104 11.254715783197414 0.23700100866065202
0.614484879875862 13.02475278012311 32981.01276469556 11.800129512246041 0.2403612918796492
0.6352664139763152 13.012604799692692 28365.584260064385 12.36890231672272 0.24376598970516447
0.6564127964494298 13.003153585710637 24435.578485392158 12.961823462451099 0.24721419730658856
0.6779282422490797 12.99608475396814 21086.448801388502 13.580017413983883 0.2507084508548958
0.6997935824497398 12.991130797785049 18222.53054967194 14.224773765350047 0.25425247338560775
0.7220049194561293 12.98805003110516 15774.65710154356 14.897278218848239 0.2578482419031535
0.7445708255018523 12.986657382342607 13674.00379718263 15.598691764678566 0.26149698858579123
0.7674672322403011 12.986733497967148 11871.727774228832 16.330014830971745 0.2651979731155515
0.7906894699578125 12.988097431108217 10320.445222532979 17.092984569109955 0.26895716028613476
0.8142386616048919 12.990604831432597 8984.777452607286 17.88905077221719 0.27277697233106124
0.8380981959984897 12.994050499701043 7832.972838118874 18.719740985892788 0.2766599673435316
0.8622555359582244 12.99829246001418 6836.736113445728 19.58607456167571 0.28060374325940357
0.8867049183616097 13.003233147756761 5975.111261147688 20.490278004136922 0.28461599129536475
0.9114415181021364 13.008701366607594 5228.845068397067 21.434143028714246 0.28869975152621025
0.9364372849513846 13.014579938315592 4581.3872175407205 22.41936583720917 0.29285667780323243
0.9616916282268936 13.020764136751907 4018.528657827773 23.447539243923316 0.2970871291279836
0.9871923480785845 13.027159548263917 3529.0132200974895 24.521282481438355 0.30139886767919655
1.0129106618766617 13.033621109227571 3103.208551058019 25.642788084971826 0.3057954147050155
1.038849800765441 13.040058418326062 2731.466789576098 26.813504908558603 0.3102742681082714
1.0649803541805947 13.04639704265694 2407.3126213105697 28.036762334045715 0.31484597766743627
1.0912848833995752 13.052520246886148 2123.713571553767 29.31490862070928 0.31951304165247363
1.1177599412780461 13.058359701457896 1875.7853305194822 30.65009633044587 0.3242760488602693
1.144372757822352 13.06383050727823 1658.3988008578096 32.04610392961863 0.3291457137084403
1.1711078232702756 13.068850509521148 1467.873110874952 33.50489804693672 0.33411991130647334
1.1979412634337459 13.073317098394794 1300.7176678609126 35.03062784117504 0.3392097879203015
1.2248663666050907 13.077210090670059 1153.7029227978092 36.625927671261536 0.3444159568220191
1.2518465019417373 13.080413978710881 1024.3436142645132 38.29507180527988 0.34974819363727705
1.278863106658857 13.082863303162762 910.4959890723056 40.04106373349165 0.3552076907253867
1.3058875896738769 13.084482916663935 810.1793249062799 41.868988385584174 0.3608067595178995
1.3329059630405957 13.08522075172788 721.6421367863446 43.78182103719186 0.36654462009634087
1.359896927655531 13.085060257292898 643.439861635553 45.785165127386115 0.37243417510896476
1.3868115454120051 13.083841993208473 574.2417692115635 47.88386955964321 0.378482763977536
1.4136430753910365 13.081578654138385 513.0641790188346 50.08211466056514 0.38469318093709925
1.4403706815628634 13.078207366524488 458.8858020887227 52.386169876610936 0.3910779247029564
1.4669396915429915 13.073630551920264 410.8501206715132 54.80189084040336 0.3976458665540025
1.493343064032801 13.067833334451578 368.1816689481815 57.335433244977686 0.40440601020720396
1.519544821593344 13.060757213987692 330.33554443589827 59.99338783441682 0.4113680647639132
1.545519762528488 13.052325750345782 296.6336544503591 62.7828195381133 0.41854250271075205
1.5712297912345061 13.042515003657734 266.6821450867474 65.71131034715131 0.4259406226439742
1.5966479373689544 13.031260317327526 240.00476472670425 68.78700631201282 0.43357461727014446
1.6217436814811454 13.01852396300083 216.22349131252207 72.01866908792907 0.44145764730364795
1.6464750508679342 13.004253338499423 195.01477497494017 75.41573250759896 0.44960392195644566
1.670840055872265 12.988410538419537 176.05359787215835 78.98836472153337 0.458028786798837
1.6947705745613209 12.970947621949795 159.11303119213784 82.7466693934001 0.46674525946652834
1.718261458433992 12.951834026867202 143.95779297912074 86.70250683742128 0.47577148181584245
1.7412632341612284 12.93101398102899 130.39299998895328 90.86883472282388 0.4851275751785864
1.7637487273534294 12.908458176206198 118.24303457747762 95.25783120661144 0.4948280365369344
1.7856839569251928 12.884115050234456 107.33783907035672 99.88496364847111 0.5048976907961343
1.807025646123383 12.857939766036232 97.55468786599327 104.76562700863627 0.515358032336811
1.8277759431963574 12.829977663603973 88.75483067514071 109.91557121147768 0.5262289242969158
1.8478543538712517 12.800078492310826 80.84615847421068 115.35380973691466 0.5375392116737281
1.867273760335369 12.768321604052206 73.7375233596755 121.09978380148887 0.5493156288341375
1.8859695957214302 12.734601506799109 67.33020192646342 127.17466285602781 0.5615873764401652
1.9039085051997058 12.698883501166131 61.55426643281286 133.60152009718797 0.5743863342236419
1.921078261549417 12.661201476476322 56.34378648010373 140.40471645925993 0.5877444678803984
1.937448041185439 12.621523513011276 51.641605134466815 147.61164703828513 0.6016995289746082
1.9529855467200257 12.579830357026283 47.388209925659964 155.2523729428977 0.6162931192175422
1.9676340781042307 12.536024312299672 43.54740874645603 163.35778909190088 0.6315638880284418
1.9813966531012501 12.49019486099881 40.0672508215566 171.96364827167585 0.647560692314957
1.9942399736425747 12.442286841434806 36.91821455810988 181.10808582575237 0.664333368504133
2.006106033744664 12.392237239570235 34.065681174705546 190.83260513026414 0.681935332947177
2.017004080002975 12.34012766594214 31.47495906097164 201.1828692092096 0.7004253336705892
2.026897055543199 12.2859131721309 29.12583769203643 212.20916209313012 0.7198679600671741
2.035762263941406 12.229609650491382 26.992715234113923 223.96592581996603 0.7403310130766163
2.043575332854804 12.171210423251495 25.054651233825552 236.51379809556548 0.7618909373930777
2.050299368620107 12.110682477353555 23.29314344920082 249.91872236186697 0.7846284684016901
2.0559277538992964 12.048073926409272 21.690287934107115 264.2543090372427 0.8086347242608867
2.0604483779718428 11.983428342453047 20.2308092891725 279.6011005651162 0.8340069630207
2.0638391353954897 11.916736792061398 18.90304905718888 296.0484973025083 0.8608527541685664
2.066067882129995 11.848005084211747 17.693649277798983 313.69438016308493 0.8892863104822484
2.0671385023401614 11.777298346617362 16.59171956424238 332.6494398780414 0.9194399015758284
