M[M_sun], R[km], Lambda[1], P_c[MeV/fm^3], rho_c[fm^-3]
0.24162668629717493 15.618656898711224 2160425.4255784233 3.5677272577965504 0.1711233750220791
0.25364466443713335 15.277259124252177 1723197.7383388695 3.7848314813789496 0.17388832107395727
0.26604051427311703 14.981267070230718 1383024.790241771 4.01142645077951 0.17666696282508607
0.2788167345130418 14.72348446549995 1116377.5858744902 4.247767889157932 0.17945797438354305
0.29197196615340976 14.498378243599127 905850.3254634497 4.494481122783051 0.182267924571386
0.3055080462142011 14.30120452344632 738646.2022855149 4.751722031080116 0.1850925250219852
0.3194248642592455 14.12810003820123 605066.0204808445 5.020172490879063 0.18793838550779962
0.3337239181259105 13.97591116500999 497654.46561617294 5.30005708217796 0.19080213927174725
0.34840630031745107 13.841982932438361 410979.08476070745 5.592103871977542 0.1936900717465659
0.36346977407618397 13.723939014596814 340649.30928868864 5.8964808485054565 0.196597258949099
0.3789245829700169 13.61994915621155 279371.629584658 6.214051830732946 0.19953137600475085
0.3947571918191548 13.528403888979113 236381.96250492014 6.54507323902257 0.20248858343893164
0.4109832510959147 13.447848717393033 197849.39823104703 6.890249509691401 0.20547262672338926
0.4275914660864476 13.377028522663858 166065.6051830553 7.250284917629829 0.20848656375105354
0.44455130354240113 13.314988900242927 139831.79768783538 7.611189993277434 0.21827325150174334
0.45787260102797495 13.266608106664671 122312.99348417406 8.061204113430103 0.3541917889454923
0.4667377261460913 13.222384207510526 111196.98814705892 8.566113968909661 0.47542509097431246
0.47270656195348326 13.175045860854228 103308.69618769454 9.150372570139293 0.5892478861292038
0.47675638795400166 13.121995249878799 97171.03784689355 9.812685538902523 0.6945844846300225
0.47955499101068355 13.062060190392591 91947.42955737896 10.550955304300748 0.790920753886641
0.48156917452733966 12.9944926795315 87185.03836616116 11.3628076632864 0.8783071891372136
0.4831590673260396 12.919185138039285 82595.64811020864 12.246361499861695 0.959007930779125
0.4845490298938167 12.836102181437557 78039.38183046601 13.20088059110589 1.034758967976086
0.48596173315368635 12.745618097678319 73419.32846777287 14.226367596473779 1.1061763021340407
0.4875235163011343 12.647971709194824 68715.54691407233 15.32330494628551 1.1738568991693241
0.48939756614913577 12.543775836676929 63913.90369131961 16.492653327460744 1.238355301841169
0.49166234768710876 12.43350312968407 59056.28340980921 17.732093975604407 1.29956354876284
0.4944343288638709 12.317943463610511 54181.89030235707 19.042022514230226 1.3579696137579862
0.49776798881574263 12.197938522555132 49355.908651744394 20.42819802122341 1.4146365747622618
0.5017266089496323 12.074317691647733 44637.60784338648 21.893379398125678 1.4699391378950042
0.5063654644648719 11.948128452886742 40082.62101112918 23.42895854807418 1.5231589618802566
0.5117198667828785 11.820267710073917 35748.863639170086 25.047463473697267 1.5757016919082023
0.5178112709114925 11.691830679499022 31688.750025442383 26.74843947941947 1.6277039625470893
0.5246555810374604 11.563605059204901 27916.362355095716 28.530903019080018 1.679518641446932
0.5322499309032164 11.436562448887821 24461.808081771105 30.40435805625818 1.7326324916190106
0.5405832553240493 11.311671824055512 21345.146298677722 32.366773941126695 1.789424627227537
0.5495948893617594 11.18988020673592 18561.535796222663 34.429354239212216 1.8594547185317114
0.5591115158554641 11.07197959883531 16117.860351142195 36.605013165657134 1.9428210131800725
0.5693513649060971 10.956685293965128 13946.048412500866 38.87530099391202 1.9619382136103813
0.5805343832083636 10.843039777452779 11999.944996135207 41.237352119010836 1.9802480576498145
0.5926994187183545 10.732963026985411 10278.76624536806 43.6932238233953 1.9992183785679647
0.6057680153831202 10.627395830577798 8779.380650268096 46.2460765991021 2.018879496217074
0.6197383929395998 10.526527473411301 7478.422719072145 48.897579544006746 2.0392372755891484
0.6345406557751604 10.431081812113138 6363.26242931784 51.65557572295094 2.0603471382270553
0.6501347360424644 10.34094220408934 5408.287988377774 54.52591497572957 2.082247379118772
0.6664473897620307 10.256378219405944 4596.775904101772 57.51421993387229 2.104973603228706
0.6834446010240876 10.177165698721074 3908.930667028528 60.62429888710661 2.128545501810282
0.701054025650427 10.103482226802711 3327.616721629037 63.86325220449362 2.153008969226836
0.7192211963847414 10.034465850537247 2835.154268151071 67.2396469001667 2.1784209967384593
0.7378875108385132 9.970529072260856 2419.910854012889 70.76175471434684 2.2048350007508044
0.7569973187599327 9.910781059924496 2068.762490522602 74.43228010409513 2.2322568506149603
0.7764925521411713 9.855295490381213 1772.0908618193296 78.26374347932506 2.2607725375827443
0.7963243734690608 9.803523493961917 1521.085999202357 82.26268252149889 2.290416724931456
0.816441351846148 9.755302284590002 1308.5898054436818 86.44109639150471 2.3212679443962774
0.8367940046926133 9.71015475717009 1128.2558987265743 90.80367585008123 2.353341726635174
0.8573044734459675 9.667931981279061 975.176369741482 95.36574235063318 2.3867403991536085
0.8779806541630167 9.627917074814922 844.6230587440814 100.1376300129811 2.4215223551141434
0.8987046323464724 9.590440416371433 733.3918105303909 105.1309666034319 2.4577542598555993
0.9194857358344775 9.55475918054118 638.2267815665668 110.35868402104867 2.4955109350119113
0.9402538493274168 9.52090309166777 556.7960159560838 115.83505467412394 2.5348754310889325
0.9609605502309143 9.488287324303416 486.84808059458186 121.5757499912 2.575939255698392
0.9815842487067875 9.456996589017088 426.6875740103948 127.59565832423878 2.618783455766175
1.002047407320745 9.426598012668538 374.82477635634893 133.91184213601738 2.6635033254156077
1.022331212431874 9.396993289386053 330.02559063803454 140.54468365882968 2.710217849807331
1.0423971325761423 9.36790706151805 291.2156886221739 147.51349832431745 2.7590318068721045
1.0621709393128753 9.33926733340574 257.5690273413022 154.8383371806104 2.8100503213381547
1.0816579506071144 9.310814942904765 228.30019409841043 162.54446187782733 2.8634170715867278
1.1007991578086582 9.28248881931065 202.80705982434387 170.65679046239958 2.9192656883310186
1.1195500318014853 9.254039064031435 180.5372633964378 179.2028434639245 2.9777444126842854
1.137865930716866 9.225354522846425 161.0884564063525 188.20970135500667 3.038988455328303
1.155744751321918 9.196305717142257 144.02249716148177 197.7123107006228 3.1031921485851086
1.1731113525792838 9.166766087084136 129.04346550905458 207.7432149249772 3.170517314970661
1.189955528988228 9.136681682218637 115.8604474223978 218.34140508895544 3.241170339727203
1.20625493789601 9.106000080602884 104.24458728076526 229.54673402979097 3.3153510232550385
1.2219452225491712 9.074478766655782 93.9933468082249 241.4033816880037 3.393281824185925
1.237014060621884 9.042025452954032 84.90768448691158 253.96017615673645 3.4752091431114565
1.2514189886413865 9.008695392076262 76.8717145860204 267.2697882957986 3.5613938997971406
1.2651495378489408 8.974332401043208 69.73206184477999 281.38881095707 3.652109640681043
1.2781560354108046 8.938866525416515 63.38958683997198 296.3800929761082 3.7476612904676747
1.290435610082372 8.902259369438498 57.74153082784001 312.31276111598055 3.848382542846997
1.3019434028814507 8.86443338935214 52.7010518987604 329.26138689015096 3.9546241704232865
1.3126618814953344 8.825384057037356 48.20380040745509 347.30765633290775 4.066765449933336
1.3225803443760535 8.785025945834734 44.18038928127239 366.5427004858177 4.1852320228156685
1.3316635705605597 8.74338591475416 40.51834643616296 387.06538175440505 4.31047372344524
1.3398880747307589 8.700373527900014 37.34232030383475 408.98488232161566 4.442983288191014
1.3472490994207191 8.65595342982529 34.43756805581666 432.4212160628387 4.583293907935185
1.3537195112908393 8.610134669388142 31.828712200508402 457.50736085942407 4.731992155887472
1.3592956768067679 8.562920230214914 29.480438960936656 484.3890214554372 4.889704914235061
1.3639554277756885 8.514298361876692 27.36285720915766 513.2288666942478 5.057131716699319
1.3676919009440893 8.464263772982818 25.45382841049116 544.2067347690104 5.235033232735985
1.370507256616455 8.412794884161643 23.731125135821785 577.5215876869157 5.424235413323059
1.372369306117125 8.3599825371908 22.17493542135995 613.3952334139931 5.625650953659761
1.373294860026672 8.305775874364796 20.745360911004088 652.073306597003 5.840266811043297
