M[M_sun], R[km], Lambda[1], P_c[MeV/fm^3], rho_c[fm^-3]
0.24162668629717493 15.618656898711224 2160425.4255784233 3.5677272577965504 0.1711233750220791
0.2536445164432623 15.277271119074856 1723176.9568510698 3.7848292437390163 0.17388829318285498
0.2660402403465734 14.981256628012256 1382982.4753721782 4.011421746789602 0.17666690598014415
0.27881688349620876 14.723469536361568 1116453.055245636 4.247760559649867 0.17945788937229484
0.2919713145708087 14.498383378620332 905833.2807994557 4.494470975399234 0.18226781157791208
0.30550749374459324 14.301188970985516 738599.1999883767 4.751708721240232 0.18509238125031222
0.31942466840884237 14.128093276187297 605043.7899586783 5.020155920512686 0.1879382135838529
0.3337226020182463 13.975990372970534 497673.36864115944 5.300036814998473 0.19080193521487915
0.34840509725782753 13.841993084709348 410985.4049180311 5.5920798573553565 0.19368983939849008
0.3634692296449637 13.723934355019074 340642.1846354066 5.896452546878537 0.1965969931342297
0.37892278627798176 13.619967691531695 279365.7672014616 6.214018899573047 0.19953107571222428
0.3947553932104382 13.528441289878987 236394.57019067602 6.545035712493353 0.20248825438196627
0.4109811236736782 13.447835046890614 197853.2436473502 6.89020666329376 0.20547226182548714
0.42759025889445357 13.377021685812664 166063.65382594938 7.250236349253086 0.20848616195731975
0.44458581444329 13.314929190643598 139794.37012440717 7.625382955022726 0.21152548865437573
0.4619681847334975 13.260565783041557 117973.27201314775 8.016597092649974 0.21459642842865395
0.47973381073252735 13.213124109535716 99800.2002814289 8.424583123951212 0.21770061717977468
0.49789126297839087 13.171974055047034 84632.83630723243 8.849780961944543 0.22083550874670138
0.516430596872524 13.136388800640594 71931.49711564394 9.293065852858538 0.22400453807130852
0.5353494702896372 13.10582966162167 61268.58873304937 9.75532183994969 0.22721061192161104
0.5546581102951925 13.079805170123837 52301.249659787325 10.237358627354986 0.2304550814199421
0.5743415134116726 13.057836330645516 44725.423458691366 10.739645747178136 0.2337346218962736
0.5943992312104003 13.03952759118633 38321.34000611482 11.263431249797947 0.23705546305368982
0.6148378750315461 13.024483850952446 32897.78298915347 11.809651328893322 0.24041920041166495
0.6356421081892575 13.012440914690181 28288.88757123666 12.379285144378686 0.24382746719815207
0.6568136451483578 13.003011868331944 24367.906392063407 12.973019623803921 0.24727818997367923
0.6783461909606547 12.995971935923144 21025.518519291043 13.592185822129728 0.2507762012913402
0.7002351713236497 12.991064587779217 18169.99463694361 14.237979620767367 0.2543241157957587
0.7224707676590517 12.98800659201022 15727.869340220868 14.911590909412459 0.257923918493376
0.7450597852790801 12.986638385804094 13632.165277476804 15.614045548495895 0.2615754669440981
0.767980764206617 12.986760770283848 11834.427160353334 16.346617524780385 0.2652807333800882
0.7912275163018453 12.988131626339095 10287.437447805725 17.110919440165315 0.26904437149082006
0.8148015043739956 12.990668482823345 8954.95535533829 17.908406605869143 0.2728688143777313
0.8386858826903136 12.99413939113257 7806.635522541601 18.740436535735054 0.276755072255439
0.8628677812124995 12.998410735145692 6813.160517151711 19.608369550139216 0.28070376681192594
0.887349822709654 13.003359900339047 5954.5337925087515 20.514284240869237 0.2847211903469516
0.9121061124828003 13.00885557871487 5210.2847551472005 21.459975081363638 0.2888103568950286
0.937127763875208 13.014747790156688 4564.525293260679 22.446916136737748 0.2929711060627123
0.9624120966574412 13.020958576733753 4003.873616230564 23.477153322471647 0.29720740070016843
0.987933734262266 13.02733806101292 3515.992897406529 24.553099626246716 0.30152526209121233
1.0136771858378468 13.033794917272193 3091.5430326315113 25.676685186699206 0.30592623014879466
1.039641781762394 13.040257791955662 2720.947976748623 26.84989610658214 0.31041174750145784
1.0657943939589332 13.046584245630758 2397.776800666728 28.075817844338644 0.31499046098264727
1.0921262826982745 13.052715814702438 2115.2798311558163 29.356490088120683 0.31966270940400354
1.118626021454632 13.058550925213098 1868.2925480074166 30.694699866466486 0.32443339072381905
1.1452574030375424 13.064004669175599 1651.8122938937322 32.09381562051149 0.32931034907278733
1.1720219027505825 13.069016438573227 1461.7645595418562 33.55581126558111 0.33429149410267744
1.1988793970085712 13.073474636734526 1295.1569066726447 35.085214283271355 0.33939029048589614
1.225825555198748 13.077341330579948 1148.8362934509964 36.6840290190575 0.3446033827761135
1.2528219031042096 13.080501868584745 1019.9869831304451 38.35732703053777 0.349945326216284
1.279865836602951 13.08294157125171 906.5289865860744 40.10736862647245 0.35541281591323576
1.3069107678474037 13.084516792483424 803.2173639316744 41.93958779408287 0.36102019222555454
1.3339474821734802 13.08523607811693 718.4463763449829 43.85750588914327 0.36676959461766356
1.3609568195960091 13.085029826757097 640.4985603368976 45.86577694004497 0.37266858330988967
1.3878877294656569 13.083770468022049 571.6846840519477 47.96975238616594 0.3787272142253993
1.4147374420933314 13.081464368382536 510.74056584230163 50.17420946988017 0.3849512407418577
1.4414695937042576 13.078028564687763 456.77309444033875 52.48433057281482 0.39134743719709764
1.4680642929474015 13.07342434380734 408.9336493770608 54.906551720105796 0.3979275948193127
1.4944739982107822 13.067557814967307 366.45265908372505 57.44706376627408 0.40470077628643586
1.5206863591831845 13.060408381293007 328.77020381421187 60.112495763285054 0.4116767544996856
1.546669982741871 13.051919688689189 295.22313665543777 62.90995440859251 0.41886607106379203
1.572386296164049 13.042038112654033 265.40768070061034 65.84706727022433 0.42628009954209367
1.597810851795147 13.030707417395728 238.86964189064543 68.93203017236812 0.4339311140454011
1.622897922033031 13.017881960237132 215.1856188856086 72.1736591725824 0.4418323637819647
1.6476494915387663 13.003541390412233 194.04837700287803 75.58144761581526 0.4499981542717234
1.6719992953573681 12.987603417277603 175.19110191824186 79.16529383605278 0.45844253720022016
1.6959359105504797 12.970050472961095 158.33477005191872 82.9354730555855 0.46717912973234493
1.7194163712902117 12.950837942672035 143.24432615034792 86.90468549245145 0.47622931699569493
1.7423954932721395 12.92988640499604 129.76346693400288 91.08447256082512 0.48560728999470426
1.7648798707038296 12.907243720261182 117.65120460938365 95.48900349309936 0.4953352801517522
1.7868072580568908 12.882803684347305 106.80384509173916 100.13187160871907 0.5054305074625508
1.808144995753578 12.8565425270834 97.06488658529877 105.02964464691625 0.5159188314365416
1.8288543101387422 12.828404291149463 88.31240530372482 110.19886763066063 0.5268227951403691
1.8489333745907124 12.79843312313309 80.44697973375236 115.6572277238421 0.5381659685332223
1.8683096433333672 12.76649176994434 73.37119296243647 121.42483859448087 0.5499773212733768
1.886986670331914 12.732668669618194 66.99274384537523 127.52313916676923 0.5622867054189212
1.9049100800353653 12.696848486180425 61.244787967194206 133.97463213905655 0.5751236300683031
1.92205017303599 12.659028170853 56.06205544429023 140.80499932681164 0.5885243711262705
1.9383632257232086 12.619135703941668 51.3801422425586 148.04191718762158 0.6025271750141317
1.9538584515976178 12.57728857482155 47.15415943487753 155.7138449562701 0.6171676548768826
1.9684737583077003 12.533353876062165 43.33045612272293 163.85448126440116 0.6324935729004902
1.9821870337689174 12.48734728552493 39.87113001283529 172.49766792168896 0.6485467012102056
1.9949759546028527 12.439267821837168 36.73664744727994 181.6825917405004 0.6653798389938221
2.0068102594196215 12.38910390263448 33.8962925902023 191.4513239509258 0.6830476111914967
2.017656135923304 12.336825459116952 31.322156038972054 201.84991159331946 0.7016092681040788
2.027490904633423 12.28243597511563 28.98508426087368 212.9282494352087 0.7211272778146323
2.0362995326818196 12.225966045601808 26.864165023792108 224.74197419481234 0.7416724311676296
2.044043104298538 12.167365991076498 24.937378664356437 237.352128630561 0.763321429307104
2.050700425582705 12.106655591699564 23.182482698639344 250.8256671494875 0.7861571157895679
2.0562716315861245 12.043904016742072 21.59045883266004 265.23581183199167 0.8102680019354593
2.0607161466299417 11.979050320757802 20.13765622585885 280.6640489257154 0.8357528985886276
2.0640203299784456 11.912150908258798 18.818228248020954 297.20040919575257 0.8627196945574345
2.066178898475111 11.8432439402852 17.61508657246355 314.9452292865024 0.8912886739057522
2.0671701780687233 11.772346264556102 16.520916920000644 334.00785086865005 0.9215854032263906
