M[M_sun], R[km], Lambda[1], P_c[MeV/fm^3], rho_c[fm^-3]
0.24162668629717493 15.618656898711224 2160425.4255784233 3.5677272577965504 0.1711233750220791
0.2536443553510723 15.277283945624644 1723151.6712727598 3.7848264297857797 0.17388825810828537
0.26604073977789017 14.981249762696772 1382898.121103899 4.011415831273491 0.17666683449462303
0.2788162822414134 14.723473890309812 1116432.1808793168 4.247751342414242 0.17945778246625166
0.2919711603586781 14.498383196949906 905907.6368132402 4.494458214550393 0.1822676694828986
0.30550644050845593 14.301208536462221 738606.4791043652 4.751691983457928 0.1850922004503188
0.3194234981406062 14.128111264679388 605060.8157920457 5.020135082474822 0.18793799738116732
0.3337231914382188 13.975885698760585 489684.88916465023 5.3000113280615775 0.19080167860371508
0.34840358440904734 13.842005850070779 410993.35529228835 5.592049657856805 0.19368954721003398
0.3634668134522581 13.723964261940345 340652.8990611905 5.896416956303875 0.19659665886002073
0.3789200967038631 13.619985010781818 283308.2868799753 6.213977487186839 0.19953069808112583
0.39475210503275826 13.52846441622821 236399.83934344773 6.544988521264334 0.20248784057864
0.41097872194227714 13.447873050905924 197859.40266693663 6.890152782145913 0.20547180295102174
0.42758592821299307 13.377056701794443 166067.0191010376 7.250175272526634 0.20848565668521443
0.4445831482305843 13.314926035991512 139794.27124773827 7.625314851501645 0.2115249465065575
0.4619647297904149 13.260556254640472 117975.21315883972 8.016520774378519 0.21459583804512358
0.4797297802532175 13.213137783288081 99802.47868062662 8.424497995757012 0.21769997713476133
0.49788741639080614 13.171970170725022 84638.68671853111 8.849687337687154 0.22083483086707534
0.5164261541988017 13.136399712033153 71934.78348069952 9.292962217317502 0.2240038084706387
0.53534612475551 13.105827045554754 61270.81542713977 9.755207490384635 0.22720982902395992
0.5546529689134859 13.079813999647795 52301.66932395296 10.237232818321283 0.23045424358085587
0.5743357071578188 13.057830998566704 44726.74165311868 10.739509025305047 0.23373374409949724
0.59439301246648 13.039540371407256 38322.79814401719 11.263281558860555 0.23705452778200417
0.614830610242719 13.024496209207847 32899.65864195199 11.809487784506688 0.24041820578892642
0.6356359785172394 13.012447522755524 28290.46663635149 12.379106806979767 0.24382641124917992
0.6568068166059539 13.003008901850674 24368.52691422596 12.972827312351681 0.24727709080027926
0.6783392903253648 12.995973250839738 21026.24497930076 13.591976805581316 0.2507750375431975
0.7002285081249969 12.991062413040403 18171.302749424427 14.237752778303408 0.25432288516432067
0.7224593634982415 12.988027434059093 15728.09315404226 14.91134504819441 0.2579226185324381
0.745049437020224 12.986660596079163 13632.509300223539 15.613781798044945 0.2615741188267454
0.7679722874810179 12.986753755355913 11835.228887264459 16.346332313118833 0.2652793116714889
0.7912170064082357 12.988141106400958 10288.051229473798 17.11061133573545 0.26904287328331056
0.8147926347902997 12.990663006729017 8955.351398998077 17.90807408219704 0.27286723657668377
0.8386758862295638 12.99413263743636 7806.801633580949 18.740081067747337 0.2767534390639595
0.8628559990174738 12.998412489334163 6813.557909948864 19.60798651555316 0.28070204837730556
0.8873389965718194 13.003360351392363 5954.922104800583 20.513871795966427 0.2847193829494369
0.9120945065385496 13.008847377689673 5210.5653267949765 21.459531256164528 0.288808456564052
0.9371156805690852 13.014743674694868 4564.846634126037 22.446442780139822 0.2929691400088929
0.9623998812324462 13.020948894593193 4004.1428580165616 23.476644493733502 0.29720533419547507
0.9879212588182625 13.027334103558633 3516.26554445522 24.55255293012025 0.30152309032703073
1.01366251957793 13.033793848530038 3091.728526816133 25.67610273948164 0.3059239823728091
1.0396282652252713 13.040252838410163 2721.1414829091887 26.849270787175048 0.3104093851573388
1.0657800685394014 13.046575368165124 2397.96604000919 28.075146725351143 0.3149879782216876
1.0921123357412579 13.05270452059676 2115.572049041612 29.35577554825572 0.3196601374992194
1.118610449707794 13.058541605068926 1868.3961752936455 30.693933374145843 0.3244306868724905
1.1452422037293106 13.064004398989717 1651.87356291007 32.09299967756164 0.3293075455731788
1.172006252728633 13.06900857178045 1461.88890192688 33.55493630029192 0.3342885453794402
1.1988630651433545 13.073463142402552 1295.256930815881 35.08427616558819 0.33938718838504217
1.225808938756645 13.077332587717363 1148.9433518058938 36.68303047150794 0.3446001616162905
1.2528055574995827 13.08049598561961 1020.044752909943 38.356264000419806 0.34994197883635153
1.2798489005814346 13.082937515985012 906.5981861371347 40.10622903027684 0.35540929038332103
1.306892617733411 13.084523287739097 806.649920787673 41.93837435788137 0.3610165238240826
1.3339256889635676 13.085245489271133 718.42931007894 43.85620500708611 0.36676572772342303
1.360938240485135 13.085035319124898 640.5373062468904 45.86439133811962 0.37266455416771055
1.387870220142902 13.083771925159079 571.7399301131121 47.96827614553733 0.3787230123680294
1.4147268467022966 13.081479724592182 510.76248130843555 50.17262640158503 0.384946804810037
1.4414507487903825 13.078028591385468 456.82553651033487 52.48264319013428 0.39134280427646456
1.4680449297142035 13.073429431541138 408.95914602841646 54.904752550809974 0.3979227517791419
1.4944545630801542 13.067563415525662 366.478614904661 57.44514473283908 0.40469570898087304
1.5206667841630026 13.06041640801399 328.7899174185615 60.1104481286957 0.4116714476843765
1.5466504331884061 13.051926597032471 295.2497886939999 62.90776871673698 0.4188605083042495
1.5723660530015913 13.042046777259914 265.4265755549732 65.84473328027873 0.4262742631129154
1.5977909432164261 13.030716367338071 238.88808517364114 68.92953678649421 0.4339249848193459
1.6228797588761792 13.017890909479018 215.2025091745982 72.17099435618132 0.44182592110778074
1.647629618212988 13.003554730621657 194.07081414280015 75.57859830948348 0.44999137583948384
1.6719796653933343 12.987619087548113 175.20240914967746 79.16226073801563 0.4584354610172004
1.6959159404077326 12.970065862553241 158.3465232569055 82.93222657017719 0.46717166931833193
1.7193962279742108 12.950853546520007 143.2559677187182 86.90120890591332 0.4762214442376992
1.7423791982355645 12.929917213262287 129.7614100322205 91.08076442611818 0.4855990407598966
1.7648599200901711 12.907264065982483 117.65872654680012 95.4850280845927 0.495326557217823
1.7867882977608625 12.882826517433054 106.8105975402049 100.12762546479274 0.5054213444681714
1.8081258576065498 12.856566637872131 97.07197426419934 105.02510574697683 0.5159091930730063
1.828835559475295 12.828430179118541 88.3173263707871 110.19401195544278 0.5268126432151359
1.8489155862471496 12.798463062316344 80.45323179013442 115.65200921146429 0.53815518888742
1.8682910424335555 12.766523343144058 73.37759390917061 121.41924774946672 0.5499659403617441
1.8869703962800781 12.732700257398454 67.00050509035762 127.51716585476285 0.56227475030787
1.9048931974537002 12.696887198165015 61.249480774651865 133.9682215309111 0.5751109735373479
1.9220341616114711 12.65906588155496 56.06702253185073 140.79811382779 0.5885109555557534
1.9383470679697057 12.619176352058593 51.38509869236705 148.0345155594644 0.6025129376141174
1.9538433666677995 12.577329853177607 47.15572488946748 155.70590628770347 0.617152610305277
1.9684586812393823 12.533398571000928 43.33299494109506 163.84595744219828 0.6324776503297774
1.982173583957094 12.487396657336456 39.874603945781686 172.48848045289924 0.6485297375536225
1.9949630308041242 12.439320682139895 36.740895580936524 181.67270731664425 0.6653618343787129
2.006798768365778 12.389157780673768 33.89732544014241 191.4406783765798 0.6830284735148204
2.0176450323283714 12.336882045883984 31.323865923951047 201.83843405297964 0.7015888966021416
2.027480482131603 12.282496908490831 28.989351534924783 212.9158906737814 0.7211056569009164
2.036290141797677 12.226029443832193 26.86626543144091 224.728619806425 0.7416493477893792
2.044034075012503 12.167434747276952 24.939140379759138 237.3377135491553 0.7632968502691153
2.0506936087935848 12.106724400126172 23.184371067547563 250.81008721723725 0.7861309006978388
2.0562659267179977 12.04397622982131 21.591033697201247 265.218919415432 0.8102398919728754
2.060711896181552 11.979125953083456 20.13948763162127 280.64577981114365 0.8357229329886308
2.06401638668656 11.912229407972518 18.818338243138534 297.1805884544939 0.8626875814050928
2.0661772487639594 11.843325882091778 17.61645456718458 314.92369773657015 0.8912542061292406
2.067169407134515 11.772432416280774 16.52159099114845 333.9844664813655 0.9215484694546062
