M[M_sun], R[km], Lambda[1], P_c[MeV/fm^3], rho_c[fm^-3]
0.24162668629717493 15.618656898711224 2160425.4255784233 3.5677272577965504 0.1711233750220791
0.25364104498747303 15.277371076590926 1723227.349350245 3.7847823754616683 0.17388770899238784
0.2660361992959242 14.981304495319558 1383225.2165865076 4.011323220717076 0.17666571535070377
0.2788083423061119 14.723655439147164 1116544.1439129463 4.247607042903992 0.17945610880938748
0.2919605336709442 14.498543789207247 906033.6488601757 4.494258440010466 0.18226544494703126
0.3054931817726764 14.301374938155615 738809.4389434765 4.751429951146192 0.18508937000125586
0.31940647836379144 14.128299380224167 605221.1465553383 5.019808862677731 0.18793461272486323
0.33370141898618966 13.976168149920918 497807.05479347473 5.299612332942082 0.19079766138491439
0.3483805473105018 13.842136811750835 411121.9546379956 5.591576891720425 0.19368497306761104
0.3634396105796631 13.724155953535606 340741.3110560924 5.895859798573204 0.1965914259167071
0.378889792125177 13.620162035528658 283389.42507589475 6.213329196216717 0.19952478644807145
0.3947180752254276 13.528614924396184 236482.89673284945 6.544249770641808 0.20248136273368367
0.41093951631703474 13.448052709408485 197942.48018671008 6.8893093113794865 0.20546461960002607
0.42754340054436485 13.377233651514919 166148.84685526608 7.249219167519863 0.20847774707352212
0.4445358794214322 13.315056722049356 139866.36135394825 7.6242487552846105 0.2115164596951723
0.46191214061874725 13.260720586739769 118036.60864719331 8.01532609309224 0.21458659621951587
0.47967326577371333 13.213278913636 99856.92159499953 8.423165414589686 0.21768995798729734
0.4978246667888788 13.172112894704949 84685.32518310651 8.848221770444487 0.2208242195340497
0.5163601615253338 13.136497534038131 71978.73693462707 9.29133994842407 0.22399238759649226
0.535273429144433 13.10593254466381 61308.7012049726 9.753417521806492 0.22719757395158838
0.5545756953781561 13.079905911337796 52332.52933408843 10.235263483798654 0.23044112858117505
0.5742528790659042 13.057919728588928 44756.282611071496 10.737368881776757 0.23372000371511212
0.5943046602622901 13.039584593307042 38351.783088444805 11.260938424380814 0.23703988783537266
0.6147361635044033 13.024556567191516 32921.06994259042 11.806927818731094 0.24040263692580222
0.6355332667113457 13.012467837843758 28078.322889980365 12.376315306175593 0.24380988256578076
0.6566972541150589 13.00309373670106 24192.713015383208 12.969817095415307 0.2472598856346685
0.6782265793955883 12.996004464983658 21041.78136274944 13.588705130651833 0.2507568217337243
0.7001095333706983 12.991084854119316 18185.081281119645 14.23420210549481 0.2543036225910434
0.7223375136765097 12.988015598086191 15741.155369215465 14.907496710745914 0.25790227092170614
0.7449192448103358 12.986649137497666 13644.127874128846 15.609653474775682 0.261553017576618
0.7678343213574804 12.986744700120884 11844.465889296276 16.341868103442437 0.2652570587059145
0.7910731797850472 12.988128613834519 10228.19087911134 17.105788837718055 0.2690194231084868
0.8146402152049952 12.99066169190736 8963.435688746913 17.902869408809373 0.2728425407736113
0.8385166603429691 12.994120661760386 7813.289697528649 18.734517302568957 0.27672787644173424
0.8626931042855684 12.99836781193615 6820.087446007106 19.601991323939064 0.2806751517335026
0.8871604260452463 13.003322970112677 5960.398821503392 20.507416327215275 0.28469109408443305
0.9119148064342284 13.008815137142632 5215.648401677743 21.452584684116314 0.28877871335417843
0.9369307273869019 13.014700495360618 4569.225889509314 22.439034039646362 0.29293836831878023
0.9622020995738956 13.020897462526333 4008.2048513018117 23.468680621353577 0.29717299054344315
0.987721731059597 13.027284586509792 3519.7346963978493 24.54399644610016 0.3014890994779726
1.0134587301587423 13.033743495285751 3094.6926888426783 25.666986762087834 0.30588880206040825
1.0394146149165768 13.04019772851473 2723.894842216749 26.839483885804295 0.31037241200628296
1.0655626824614282 13.046537049288986 2400.4185514590536 28.064643094787982 0.3149491207249059
1.0918855620314412 13.052661255725596 2117.686256435829 29.344592411716658 0.3196198850741596
1.1183784380678587 13.058494859628867 1870.3900694814736 30.681937234349817 0.32438836971202956
1.1450025178812355 13.06395381417587 1653.600074392501 32.08022968340423 0.32926366913104776
1.1717606151673792 13.068967537985795 1463.590071746039 33.541242682458595 0.33424239647547077
1.1986105461835421 13.073426614862806 1296.73882692187 35.06959430378382 0.3393386394483169
1.2255521225205226 13.077300459041783 1150.1521333867145 36.66740296651098 0.34454974970425606
1.2525409760490362 13.080475036757068 1021.1885852923276 38.33953266819872 0.3498890359042137
1.2795786175315038 13.082918710306018 907.644236564087 40.08839435401181 0.3553541158531374
1.3066184973876926 13.08451158615325 807.6184506808381 41.919384219090226 0.3609591137575236
1.3336494089569084 13.085229920811942 719.339462716162 43.835846528959785 0.366705211797802
1.3606527379683406 13.08503765210199 641.2988387369923 45.84270717274238 0.37260149956036476
1.3875805113464519 13.083794982948666 572.4177385851591 47.945173688315485 0.37865725531714056
1.4144325440226593 13.081514669420876 511.38019086104333 50.147852369714144 0.3848773852425801
1.4411601995467664 13.078090210254109 457.3691923928157 52.456236905982585 0.39127030251376366
1.4677438994028145 13.073487685961384 409.46644879841585 54.87659710992843 0.3978469623959344
1.4941506116652612 13.067635278284442 366.948864595021 57.41511376233058 0.40461641067312065
1.5203597606731944 13.06050720220898 329.2077019590872 60.07840493957557 0.41158840196544927
1.5463408535553296 13.052037067430081 295.6291636838135 62.87356537172371 0.4187734580719042
1.5720559167898052 13.042172947138559 265.7687357470864 65.8082095675991 0.42618293107321076
1.5974780827754678 13.030866031158185 239.20019554746136 68.89051908914033 0.43382907175200286
1.6225648244951103 13.018066463100597 215.48407879123965 72.1292944047593 0.4417251039556526
1.6473162709265377 13.003746613395665 194.32642209640517 75.53401180532201 0.44988530560270873
1.6716655428880849 12.987838206979879 175.4392617253011 79.11479859614462 0.45832473238321747
1.6956054946080528 12.970310725393121 158.5518083433496 82.88142581546911 0.46705492933196857
1.7190694424707287 12.951086589220056 143.45416805224542 86.84680808244647 0.47609825313826115
1.742075288880643 12.930212054293222 129.94178552921244 91.02274088797016 0.4854699597452139
1.7645601760225642 12.90759662641467 117.81443189321168 95.4228229883235 0.4951900653468853
1.7864869025387762 12.88317919768347 106.94801759581519 100.06118465030367 0.5052779680729572
1.8078277225769246 12.856950508920926 97.19970481587102 104.95408475288632 0.5157583798431893
1.8285534955993479 12.828868519898174 88.43737066240791 110.1178672557906 0.5266531711519161
1.8486277893885177 12.79891242018515 80.55983866630143 115.57035593298254 0.5379865213904569
1.8680196476642463 12.767037732816279 73.46821668380093 121.3317695463054 0.5497878667972927
1.8866969524874142 12.733224180483498 67.08764704884341 127.423388889956 0.5620865676056394
1.904626758120268 12.69743943802936 61.3308882524497 133.8679187990051 0.5749129448008437
1.9217614204124454 12.65961349958299 56.14368812773866 140.6903820121128 0.5883010530104752
1.9381065839115634 12.619838563530262 51.454081919587416 147.91870965870424 0.6022901792023024
1.9536021129156633 12.577997634970613 47.21998652205767 155.58169920464522 0.6169172254495773
1.9682346123218069 12.534115398265161 43.391489248559836 163.71240525975298 0.6322278834086286
1.981961721826778 12.488163854574506 39.92490547547832 172.3447383520597 0.6482643334808584
1.9947602958149804 12.440120447077398 36.787892879940095 181.51806292779514 0.6650801474801584
2.0066082040844084 12.389989710380934 33.945538921426234 191.27412770212794 0.6827290633698834
2.0174719115595106 12.337774760340984 31.365083031061744 201.65886958191177 0.7012701873785706
2.027323323263552 12.283437770755484 29.02576349360861 212.72254204596916 0.7207674050442399
2.036149034713778 12.22701283550088 26.901205686694396 224.51969789438402 0.741288221290691
2.0439073838018644 12.168467845161977 24.968173174537025 237.1122007607961 0.7629123302490053
2.0505869057039527 12.107806121263204 23.21453353632393 250.56599727801128 0.7857196276009983
2.0561705442524407 12.0450843014381 21.61774318740628 264.95465856270647 0.8098001465607081
2.060642199040753 11.980308243084924 20.164414835943695 280.3598419327656 0.835253693665341
2.0639735612983863 11.913470419713333 18.84229553455621 296.8705270261415 0.8621852263340095
2.0661472842203987 11.844605517734916 17.637407872275016 314.58687925007087 0.8907150259794528
2.0671616966810795 11.773766257708358 16.541721254579574 333.61867001787203 0.9209707231601337
