M[M_sun], R[km], Lambda[1], P_c[MeV/fm^3], rho_c[fm^-3]
0.24162668629717493 15.618656898711224 2160425.4255784233 3.5677272577965504 0.1711233750220791
0.2536373882890517 15.277451458975262 1723292.2327899495 3.784712547796907 0.17388683862423257
0.26602683274316047 14.981553573868798 1383307.7822836223 4.011176432836941 0.17666394150580061
0.278796234498825 14.723881829793362 1116768.3158954373 4.2473783326650345 0.17945345611527455
0.29194335310964287 14.498807707778107 906287.5142319875 4.493941809936035 0.1822619191976665
0.3054732048819481 14.301606221813463 739017.0757394509 4.751014654883105 0.1850848840090097
0.3193796380760691 14.128625177085596 605397.4711439634 5.019291845323039 0.1879292484702579
0.3336685660168582 13.9764792790347 498030.003605446 5.298979988413704 0.19079129472476294
0.348342444584403 13.842510921295458 411288.3245860876 5.59082764560596 0.19367772390534307
0.36339618497837206 13.724472938074294 340920.09310919425 5.894976824665952 0.196583132838913
0.37884085103628645 13.620469472367304 283552.04623464285 6.212301815725213 0.19951541797503558
0.3946617832419903 13.528924904862583 236642.5451521958 6.54307905462291 0.20247109713575778
0.4108781157413329 13.448307318621286 198066.10651239683 6.887972668055046 0.20545323618457453
0.4274737909098792 13.37749276164089 166269.82082745156 7.247704061799472 0.20846521299218568
0.4444601322433847 13.315326995261366 139970.18888611117 7.622559378788185 0.21150301117199524
0.4618290120782099 13.260943725062484 118125.67935290752 8.013432990773346 0.21457195154257175
0.479582073371254 13.213503836746987 99939.44592638125 8.42105383373463 0.21767408185120324
0.49772732641250544 13.172303606786326 84754.6840032548 8.84589950008105 0.22080740530438864
0.5162527833573367 13.136693905620627 72043.79908664212 9.288769422458802 0.22397429093344318
0.5351573625654704 13.106126400233926 61367.10239575043 9.750581322736837 0.22717815583146986
0.5544520776559638 13.080045797769902 52384.15582184335 10.232143136265222 0.2304203482838539
0.5741185122172363 13.058071651677306 44800.888979419164 10.733977945327315 0.23369823285272603
0.5941673802489059 13.039725247509113 38391.28157252182 11.257225926574861 0.2370166920818986
0.6145866833195596 13.024657471148995 32958.65909412604 11.802871842514097 0.24037796982315598
0.6353731100143666 13.01255456440664 28344.583627925364 12.371892567765585 0.2437836952034748
0.6565273315324706 13.003102999482326 24418.938530428357 12.965047903760805 0.24723262689087044
0.6780487636279298 12.99606110930883 21068.764750138223 13.583521793995875 0.25072796230392297
0.6999215236349927 12.991103141208907 18207.882245491804 14.22857685056198 0.2542731053084921
0.7221386872108846 12.98802584886354 15759.828953769882 14.901399980564744 0.25787003521105845
0.7447105630242256 12.986661512067096 13661.435571081334 15.603113273218819 0.2615195884045465
0.7676156450342201 12.986742591441272 11860.446076570559 16.334795907385608 0.26522180558233927
0.7908448712967497 12.98810648989392 10310.968733702899 17.098149178021455 0.26898227403038805
0.8144021702126296 12.990619640509324 8976.427786948156 17.894624465802547 0.2728034191085856
0.8382682912077237 12.99406407667844 7824.526563125245 18.725703636110097 0.2766873822046693
0.8624336211416571 12.998319223888151 6830.049197723637 19.592494397623977 0.2806325450145248
0.8868903156558916 13.00326436987457 5969.498828476013 20.49719046532842 0.2846462827720999
0.9116312937232177 13.00874646766678 5223.415198228994 21.441581084557065 0.28873159912736496
0.9366358030247323 13.014639685169268 4576.605881853013 22.427298523303325 0.292889625665081
0.9618970788876312 13.020823147789102 4014.2178427666363 23.456066002774474 0.29712175882922504
0.9874059022959982 13.027207485224864 3505.9578340430194 24.5304433934311 0.30143525963365464
1.0131331366215548 13.03367019501701 3099.654443387034 25.652547715891693 0.305833079000334
1.0390782317157048 13.040119377234053 2728.518919357201 26.823982436143073 0.3103138503208019
1.0652155976387356 13.046447500892537 2404.418624489517 28.04800673515757 0.31488757559658936
1.0915270625576925 13.052574895252828 2121.284766335794 29.32688007691287 0.31955613154429496
1.1180090299151353 13.05841292111128 1873.5866292712424 30.662937596931926 0.32432134725989215
1.144623182273168 13.063880103605062 1656.545210715727 32.059875168568645 0.3291933400098733
1.1713714455614732 13.068896364231904 1466.1338025308148 33.51955532600785 0.3341693078481717
1.1982155459280432 13.073376559606936 1299.0125373378773 35.04634227374579 0.3392617512886207
1.2251426822014102 13.077245586602128 1152.2986027168583 36.64265370112921 0.34446991240523844
1.2521240962618339 13.080430300490967 1023.0823527948162 38.313001620822696 0.34980499136231036
1.2791529464071476 13.082880012040368 909.4186251334976 40.060150645159105 0.3552667392535606
1.3061819732011088 13.084488729859387 809.1924820150408 41.889311186215714 0.3608681984230994
1.3332058949644048 13.085226013073758 720.7215337467682 43.80360726217856 0.3666093800240072
1.3602022269703524 13.08504802740161 642.5882285332324 45.808369180609745 0.3725016493437067
1.3871227072589813 13.083825926470134 573.4813839014288 47.908590415236844 0.37855312751262127
1.413959290421101 13.081544349224556 512.4374770759674 50.10862299308142 0.3847674602060885
1.4406877378280016 13.078159677484722 458.2490397015507 52.41442365797358 0.39115549900080115
1.4672629822325327 13.073573858347185 410.29679601768447 54.832014994100454 0.3977269553580442
1.4936700742442341 13.067751160468015 367.6844072873135 57.36756280456219 0.40449084994633794
1.5198732535809099 13.060655896033992 329.8793370679003 60.02766884779988 0.41145691020908026
1.5458519557619237 13.05220989593597 296.2359143106204 62.81941006200039 0.4186356285031203
1.5715631325540627 13.04237970801863 266.316081093076 65.75038154164976 0.42603832497556743
1.596978363118387 13.03109249492651 239.6813510179641 68.82874364665902 0.4336772157334092
1.6220724936571058 13.018328443820282 215.92568369488845 72.06327367176372 0.44156548692841296
1.6468209373677154 13.00404939016061 194.72987119544695 75.4634225574866 0.44971737545495455
1.6711752510780387 12.988178549386497 175.80794086581494 79.03937718469169 0.45814825704203915
1.6950993209543384 12.970675683763401 158.89490108052362 82.80100158627133 0.4668701146875054
1.7185948728766618 12.951546787299371 143.75324546644268 86.76068653574868 0.4759032302075978
1.7415941140190445 12.930697932518399 130.21913575230136 90.93088616157539 0.4852656167894949
1.7640756990253106 12.908111412707873 118.072678078296 95.3243510848386 0.49497399600293185
1.786008526650969 12.883739152246086 107.18594774192952 99.95600985428008 0.5050510054260177
1.8073439755382645 12.857534170631205 97.40877198843722 104.84166217973524 0.515519650273456
1.8280884487264448 12.829532022955355 88.6283295332826 109.99712746392562 0.5263999606793828
1.8481730135040928 12.799623454058228 80.73593341634808 115.44110967344326 0.5377195432177041
1.867574682183087 12.767804550387853 73.63106664082481 121.1933066985795 0.5495060071802957
1.88626346308101 12.73404650097853 67.23283762030216 127.27493284365762 0.56178861750527
1.904194476783259 12.698287739627414 61.466215513963135 133.7091109001846 0.5745993247937764
1.921358667206402 12.660573252435759 56.26347161682822 140.51987440405858 0.5879688393492193
1.9377069944131093 12.62081093707806 51.56287313404263 147.73542842304752 0.6019376286267066
1.9532229058101722 12.57904926418014 47.32549678405064 155.38512696787174 0.6165447013837333
1.9678807044616544 12.535265114079468 43.48459279770695 163.50073499375966 0.6318315447994959
1.981624366326501 12.489366382862775 40.012241691290264 172.11726312644416 0.647844325348386
1.9944561961180483 12.441431524208054 36.86495006922177 181.2733418379582 0.6646343846217704
2.0063082561194654 12.391331230743571 34.017568113484906 191.01057331574125 0.6822552684886166
2.01719223365384 12.339178842315642 31.432367338000496 201.37473088757116 0.7007658692240871
2.027067407942229 12.284911463397501 29.085862409181512 212.41622187325598 0.7202309370068654
2.0359229357214534 12.22857313463831 26.957212166584327 224.18912609510284 0.7407168200658352
2.043710043606301 12.1701026428589 25.02087856777078 236.7552171033547 0.7623033724463567
2.050415647002384 12.109523645545318 23.262210328125523 250.1795981553166 0.7850682460213684
2.0560286471362117 12.046875506562042 21.65978390762582 264.5365696605165 0.8091044223370107
2.060524943433303 11.982158185997143 20.204958404256136 279.90688775029497 0.8345094191549712
2.0638871454864836 11.915407709048612 18.87828648508216 296.3800129290135 0.8613905056057993
2.0661002410792033 11.846632958917034 17.671188854039787 314.0540572814606 0.8898620828057233
2.0671471986274246 11.775871928272144 16.571587799574964 333.0400300696198 0.9200568075833022
