M[M_sun], R[km], Lambda[1], P_c[MeV/fm^3], rho_c[fm^-3]
0.24162668629717493 15.618656898711224 2160425.4255784233 3.5677272577965504 0.1711233750220791
0.2536314829316983 15.277605941434619 1723590.564620418 3.7845954030316236 0.17388537847124583
0.2660148650575383 14.981793166866993 1353985.9242084776 4.010930186178257 0.17666096576025525
0.27877584515138615 14.724235873152677 1117144.0870183008 4.246994668661913 0.17944900619100768
0.29191526363404996 14.499270193026712 906643.3425478223 4.493410676940494 0.1822560049084916
0.30543512017765306 14.302155879957878 739389.3580798357 4.7503180370077756 0.18507735920644094
0.31933495810078993 14.129130862469792 605779.1314470347 5.018424627936794 0.18792025075516045
0.3336160603028212 13.976990984132286 498390.80426699715 5.29791936195328 0.19078061597620402
0.34827926595656156 13.843063534586408 411646.5839804929 5.589570979251334 0.19366556531266507
0.36332362836557625 13.725001882024172 341239.5189899709 5.893495911752781 0.19656922379143793
0.37875768098896895 13.620987551413172 279911.2111864228 6.210578760370689 0.199499705784896
0.3945683002240356 13.52943310078754 236880.752705812 6.541115663010152 0.20245388084372606
0.4107730579517639 13.448807337017746 198292.2412610643 6.885731071557895 0.20543414580815533
0.4273603273089424 13.377936861250673 166466.14199125266 7.245163256074509 0.20844419355757576
0.44433171993680914 13.3157587249488 140151.22925423767 7.61972640219853 0.2114804588567436
0.46168937528497517 13.261350452252206 118287.70112202062 8.010258475198762 0.2145473940981167
0.4794281946366561 13.21390327959977 100085.4526697197 8.417513061528801 0.21764746019412415
0.4975625863309444 13.172640518886567 84885.83178365686 8.842005539614465 0.22077921136684928
0.5160728384473272 13.137002919248463 72161.91579471681 9.284459317711137 0.2239439475273159
0.5349651783478584 13.106401822982168 61465.41243130613 9.745825894280259 0.22714559765106115
0.5542462365699601 13.080292860465947 52470.155758257715 10.226911433570631 0.23038550718480177
0.5738978088509935 13.058286904356837 44878.23608151088 10.728292706600707 0.23366173185903466
0.5939316406824044 13.03990487944319 38458.71422252917 11.251001741122757 0.23697780325855913
0.6143352795625856 13.024821320879658 33019.952699798414 11.796071997767987 0.24033661542180917
0.635106520257495 13.012688827323272 28398.536709475276 12.364478063175277 0.2437397933716173
0.6562445900004048 13.003231317498958 24464.451842991082 12.957052784123565 0.24718693006557707
0.677749501530152 12.996144571111575 21111.250037545742 13.574832650791599 0.2506795834825223
0.6996061437647924 12.991176626598753 18245.90737442868 14.219147167794798 0.25422194881926435
0.7218054846074372 12.988071001950907 15678.747763546176 14.89118025657179 0.2578159996779536
0.7443613908525332 12.986667083824695 13691.491933476143 15.592150439375432 0.2614635536698741
0.7672475429403915 12.98673345594075 11887.564594515805 16.322941678526966 0.2651627152246222
0.790460334443716 12.988070814258876 10334.166359310067 17.085344156651605 0.26892000754761053
0.8139957936638051 12.990555544977932 8997.34894520962 17.880805320453174 0.2727378482520191
0.8378463237352477 12.994007946164015 7843.723972880865 18.710850194356365 0.27661879044616094
0.8619968448491542 12.998248335825702 6846.539821470997 19.576577686693028 0.2805611367707219
0.8864315068395209 13.003177167148941 5984.225815416417 20.480052578015393 0.2845711818926228
0.911158444365648 13.00862800526413 5236.779809764486 21.423140309880253 0.2886526410704073
0.9361479885468952 13.014517861406146 4588.300917025584 22.407631616392653 0.2928079405304128
0.9613860286746033 13.020698186998734 4024.701661709468 23.43492649483455 0.2970359050063212
0.9868771803331378 13.02707842479977 3534.873825826489 24.507731953634398 0.301345037864969
1.0125844475467494 13.033526479501436 3108.285421341392 25.628268482548368 0.30573908838253167
1.038507641868206 13.039969162472701 2736.2299052753674 26.798007423622643 0.3102157214008084
1.0646315920835914 13.046316475648883 2411.339296233321 28.02013087817058 0.31478445068024286
1.0909258537163131 13.05243424795672 2127.31844955768 29.297202066366538 0.31944930892871953
1.1173899443162174 13.058287763853968 1878.8617780373177 30.631103647896623 0.3242090509418817
1.143989467912914 13.063758104645045 1661.4058500790218 32.02573619428042 0.3290752741563967
1.170717774611356 13.068784830598274 1470.4677240416434 33.48322020739053 0.33404685475212387
1.1975405103145447 13.073255882239298 1303.0406520786094 35.00738696849047 0.3391329366549485
1.2244567101575126 13.077157737225708 1155.7900409907402 36.60119111028462 0.3443361605054449
1.2514221662322156 13.080345644781422 1026.2886794103288 38.26855549182545 0.3496641957692073
1.2784353643962576 13.082828442562835 912.1917635470923 40.012836683267224 0.3551203656620405
1.3054525298034987 13.08446435234396 811.7042757119258 41.83885008905665 0.3607154300928439
1.3324691555497787 13.085244137433907 723.0030960880118 43.74960332450307 0.3664488523924558
1.3594452435565358 13.085069629046995 644.6606539085884 45.75085133654586 0.37233439526637746
1.386352876399015 13.08386552077168 575.4038574474014 47.84717968334719 0.3783780137801646
1.4131785152251026 13.081625846655168 514.0805190242124 50.042916173923395 0.38458334245776654
1.4398976968241217 13.078281631292274 459.7898236994708 52.34439115537704 0.39096321598758227
1.4664620129795434 13.073725108224746 411.6575035828961 54.757347280796196 0.39752596330252454
1.4928596046113418 13.067953750760047 368.9192168240556 57.2879253091164 0.404280563081959
1.519052447950411 13.060885605814539 330.99663181566535 59.94269971513126 0.41123669733692714
1.5450290127151738 13.052498625182556 297.23932588093237 62.72871769071695 0.41840480920784073
1.5707360562670174 13.042716699556012 267.22259316513873 65.65354187338275 0.42579616546388993
1.5961524498923418 13.031492281262121 240.49567492858978 68.72529717955359 0.4334229242544455
1.6212471555154118 13.018791561851767 216.66574247817908 71.95272216686767 0.44129820873006936
1.645987735359636 13.004559483714901 195.4109925425635 75.34522540290676 0.44943618722528256
1.6703352690154611 12.988738308361583 176.4239052479172 78.91294737799632 0.4578521607781316
1.694276388661988 12.97133115724555 159.45971171493792 82.66634574213444 0.4665606759498603
1.7177698370310575 12.952253999545873 144.26785184480187 86.61649722496492 0.4755767123611632
1.740774318144669 12.931478600035964 130.67721061266096 90.77704826631243 0.4849232882052953
1.7632542679607566 12.908943001375265 118.49418352558318 95.15949658745527 0.4946122684254523
1.7852047875525625 12.884674866506447 107.56235784141266 99.77994027038906 0.5046710549025435
1.8065543564567135 12.85855397642461 97.75834070513643 104.65291241603926 0.5151179216030931
1.8273090787790547 12.830633847644892 88.94241672727803 109.79501766702785 0.5259761044147195
1.8473982760832424 12.800788417867635 81.02308282220372 115.22476932012052 0.5372726587010559
1.8668271105622039 12.769089299571275 73.89116072343907 120.96154863838018 0.5490342326995841
1.8855235290587804 12.735394734909308 67.47377211960062 127.02645885818686 0.5612899321990389
1.903486745281595 12.69976548456006 61.68372611755285 133.44249996590446 0.5740715323309002
1.9206773268710826 12.662157191525457 56.467030216542895 140.23451630939914 0.5874128532646237
1.9370645599899023 12.622557331447442 51.751792111631545 147.42870708646325 0.6013476348754487
1.9526084748783878 12.580897295758376 47.4909245091983 155.05595841872412 0.6159205603803349
1.9672739433772688 12.53715798892541 43.64240146759426 163.1465377594553 0.6311683338447401
1.9810639739977285 12.49141158755136 40.151623477778465 171.73663658192874 0.6471415400507837
1.9939173866292672 12.443563177051645 36.99492300315782 180.8638783030535 0.663888541115408
2.0058068305741696 12.393580798643917 34.13521249168738 190.56962048163857 0.6814625622903163
2.0167269327339077 12.341536054240148 31.540103966798192 200.89936337380047 0.6999221387782827
2.0266493247680315 12.287411461999309 29.187279537982107 211.9032090907422 0.7193316227619351
2.0355355778706135 12.231168129146461 27.048470291783527 223.63613424222748 0.7397609604832712
2.04337562359696 12.172846753388242 25.106542314990993 236.15710033816657 0.7612815625972631
2.0501341543650544 12.112411835287459 23.339732564604823 249.53329073102026 0.783978717794625
2.0557878433311143 12.049876381087488 21.732288337424322 263.8372976875545 0.8079407931471567
2.0603344972378705 11.985298824184431 20.27126219823943 279.1493484284223 0.8332646636593996
2.063757324416393 11.918685630988545 18.939241657782308 295.5584879313602 0.8600574683943633
2.0660188029471813 11.850033793352424 17.72677644841089 313.16305616152994 0.8884357652591469
2.067132946075931 11.77942353402255 16.622648351196297 332.0717354872912 0.9185261801671186
