M[M_sun], R[km], Lambda[1], P_c[MeV/fm^3], rho_c[fm^-3]
0.24162668629717493 15.618656898711224 2160425.4255784233 3.5677272577965504 0.1711233750220791
0.253644542881989 15.277275908937533 1723122.0979506052 3.7848290903030115 0.1738882912703492
0.26604015138345877 14.981269867666327 1383006.1146390724 4.0114214242349675 0.17666690208226174
0.27881697311526893 14.723470829723272 1116389.4565348662 4.247760057062537 0.17945788354303918
0.29197138463540895 14.498370895023221 888712.3262403195 4.494470279589305 0.18226780382990704
0.30550747806185247 14.301185094294773 738629.878717139 4.7517078085799005 0.18509237139183882
0.31942465428819544 14.128104459947547 605036.8964015985 5.020154784277391 0.18793820179497317
0.3337225108593769 13.975959873932938 497669.11055673147 5.300035425272097 0.1908019212226405
0.3484050147651674 13.841993780810936 410985.83839362493 5.592078210666381 0.19368982346632124
0.36346882110924983 13.72394099712099 340643.37999747344 5.89645060622932 0.19659697490724157
0.3789227829912564 13.619959981261786 283285.7855719222 6.214016641476578 0.1995310551211034
0.3947552558851107 13.528431193602533 236393.52013569407 6.545033139292398 0.20248823181847012
0.4109809843429679 13.447836667545472 197854.10433240133 6.890203725309619 0.20547223680438131
0.42759049840396857 13.377013144865572 166062.10696681304 7.250233018913268 0.20848613440627192
0.44458555645087283 13.314921130730022 139788.00985618212 7.625379241530378 0.21152545909258888
0.46196800157438783 13.260566287614248 117973.47726687373 8.016592931228708 0.2145963962366961
0.4797332464442458 13.213143683028235 99803.08800303607 8.424578482147627 0.21770058227990086
0.497891869776229 13.171957761551857 84634.07840827073 8.849775856872315 0.22083547178379723
0.5164302189327815 13.136391544078096 71931.33035998479 9.29306020189625 0.2240044982881817
0.5353495646963552 13.105832064213393 61269.419367138864 9.755315604778373 0.2272105692323277
0.5546578318149057 13.079788542508007 52302.20662016375 10.237351767327088 0.23045503573483236
0.5743411662703037 13.057823824650558 44725.20692229761 10.739638292099785 0.2337345740323613
0.5943997271428927 13.039500679100124 38322.23690543393 11.263423087547743 0.23705541205580286
0.6148376284203337 13.024482944971146 32897.76497315662 11.809642411247527 0.24041914617749974
0.6356418027596684 13.012445284464976 28288.355073779087 12.379275420104745 0.24382740962000451
0.6568133238014906 13.003020263992235 24368.14771489131 12.973009137557584 0.24727813003859528
0.678345818299523 12.995984049137519 21025.453496338152 13.592174424992963 0.2507761378351362
0.7002349767175606 12.991053517679946 18170.279509077616 14.237967251623928 0.2543240486925519
0.7224704548188788 12.988002570426714 15728.050243441134 14.911577503219128 0.2579238476097784
0.7450593994110682 12.986652331156273 13632.576707298691 15.614031166842759 0.261575393434627
0.7679802017738524 12.986757995800383 11834.673923840863 16.34660197289459 0.26528065585783805
0.7912266809633629 12.988139687897764 10287.14691772736 17.110902639986573 0.2690442897972399
0.8148008064420358 12.990677433493214 8955.092044248979 17.908388474161402 0.2728687283440746
0.8386859845529863 12.994133511202067 7806.638044979443 18.740417152922923 0.27675498320144615
0.862867197098546 12.998410376649133 6813.228862703847 19.608348664178163 0.2807036731097908
0.8873497886038946 13.003358612195738 5954.530581949888 20.514261751224364 0.2847210917938407
0.912105548062643 13.008854958884246 5210.337956167757 21.45995088061517 0.2888102532744319
0.9371267937548465 13.014747629997421 4564.601973537692 22.44689032570229 0.2929709988583656
0.9624114447829093 13.02095183527299 4003.9436708273797 23.47712557721093 0.2972072880184208
0.9879330327569203 13.027337941369325 3516.0307305165566 24.55306981615149 0.30152514366985556
1.0136762740116068 13.033794558743148 3091.545578022215 25.676653427167214 0.30592610758264416
1.0396413016125954 13.040250178825136 2720.9636871591933 26.849862009311458 0.31041161868810907
1.0657934971368612 13.046580204127519 2397.8023862489 28.07578124970286 0.31499032560317697
1.0921265205400212 13.052707302594987 2115.3099938734877 29.35645112582644 0.31966256916366725
1.118625550614473 13.058544445848364 1868.2895512739954 30.694658071299724 0.32443324328866
1.145256014292244 13.0640056297841 1651.811421070992 32.09377112889266 0.3293101962039673
1.172020900916454 13.069014031939368 1461.7849388118032 33.555763555578686 0.3342913333150502
1.1988784186813344 13.073467278637056 1295.1783133349145 35.085163129678875 0.33939012133483354
1.225824482771716 13.07733428369674 1148.8347615122052 36.683974570330264 0.34460320713294795
1.2528207740632198 13.080495594486045 1019.9687844286758 38.3572690656874 0.34994514369052704
1.2798648156345216 13.082936362150098 906.5465796096044 40.10730648660099 0.355412623673233
1.3069084167553267 13.08452561558236 806.5688786495385 41.939521627839156 0.36101999219497566
1.3339466008192495 13.08523671131128 718.4463851067679 43.85743495461694 0.36676938376356666
1.3609559053901485 13.085031716313791 640.4996716722059 45.865701385880605 0.37266836360864297
1.387887305227339 13.083774662733408 571.6846582561537 47.969671889616556 0.37872698510623487
1.4147441995772547 13.081479306402175 510.70293086737587 50.17412314817953 0.3849509988589397
1.4414686241897614 13.078025828998728 456.7910204192222 52.48423856300929 0.3913471845726448
1.4680628235976192 13.073424932454225 408.92615623728653 54.90645361474256 0.39792733073731873
1.494472954840547 13.067558128974161 366.45625903493976 57.44695912489419 0.40470049997554064
1.5206853141007486 13.060411496903166 328.7702707111787 60.112384109467776 0.41167646512862793
1.5466691606624994 13.051922438663484 295.22675305227193 62.90983522670528 0.41886576773641365
1.5723851755168532 13.042038557724826 265.4068159067718 65.84694000184453 0.42627978129184296
1.5978098447985278 13.030708354405252 238.87380797393487 68.93189421234015 0.43393077982928374
1.6228962108870275 13.017882980989038 215.18268973365898 72.17351386467004 0.4418320124738839
1.6476487620820701 13.003542583480975 194.05924423190135 75.5812922478996 0.44999778465513396
1.6719979308671602 12.987604161498792 175.19750268691507 79.16512844620877 0.45844215134760624
1.695934835007407 12.970051825609817 158.3332011485551 82.93529602998268 0.4671787229280252
1.7194155578837824 12.950837566382958 143.24824478862644 86.90449591969987 0.47622888770668415
1.7423941840095347 12.929887829690923 129.7621424046108 91.08427036202049 0.4856068401767906
1.7648788500924815 12.907245555340621 117.65284290208722 95.48878672014362 0.49533480450348427
1.7868063239675602 12.882803436313452 106.80664099260689 100.13164007285397 0.5054300078181988
1.8081431155786245 12.856544894811217 97.06489441933606 105.029397147372 0.5159183058707406
1.828853293598657 12.82840635538923 88.31090400340246 110.1986028576795 0.5268222415704972
1.8489333458996138 12.798434357429896 80.44641849753084 115.65694316568688 0.5381653807342671
1.8683079608782989 12.76649353529097 73.36947415935565 121.42453373336991 0.5499767006878741
1.8869872593691028 12.732669185030478 66.99393261149525 127.52281345008504 0.5622860535227661
1.9049092483306236 12.69685085358885 61.24303243841541 133.97428257698078 0.5751229399242275
1.9220492751654028 12.659030238648945 56.06231568813505 140.80462386931362 0.588523639592285
1.9383626762596395 12.619137986416291 51.381369769378665 148.04151358598796 0.602526398666309
1.9538580404800259 12.577290052941391 47.15513790211898 155.71341207021896 0.6171668345144833
1.9684734432137325 12.533355726928097 43.3302136983296 163.85401647032654 0.6324927046612961
1.9821863412532041 12.487350621500482 39.87236663424978 172.49716693937017 0.6485457762011303
1.994974705723598 12.439272613687606 36.737878737675345 181.6820527536334 0.6653788572217705
2.006810041725545 12.389107505237716 33.896468324797944 191.45074345893352 0.6830465676340802
2.0176551501461866 12.336828745090513 31.321784576005644 201.84928573462736 0.7016081572666362
2.0274899713276304 12.282439527457145 28.98503163563361 212.92757552394096 0.7211260988471881
2.036299277776383 12.22596963418914 26.864347973615015 224.74124599238635 0.7416711724524003
2.044042135671449 12.167370110173199 24.936939967998956 237.35134258891958 0.7633200890338984
2.050699928711124 12.10665862929607 23.183199968160046 250.82481758887457 0.786155686302646
2.056271655205872 12.043907815255002 21.58991810293467 265.23489070188606 0.8102664691214471
2.0607151879526016 11.979055043993489 20.13690357364424 280.6630527245433 0.8357512645868416
2.06401963338507 11.912155562166395 18.817861891145398 297.1993283845532 0.8627179434496305
2.066178814512223 11.843248978227182 17.61497336155188 314.9440551849896 0.8912867944001581
2.067169431616019 11.772351425034088 16.521069032952454 334.0065757319267 0.9215833892497933
