M[M_sun], R[km], Lambda[1], P_c[MeV/fm^3], rho_c[fm^-3]
0.24162668629717493 15.618656898711224 2160425.4255784233 3.5677272577965504 0.1711233750220791
0.2536447951608568 15.277249023161422 1723196.0364870797 3.78483466899066 0.17388836080599948
0.2660408671409885 14.981265489102443 1383060.036406845 4.011433151816749 0.17666704380316642
0.2788170095714974 14.723487840584506 1116353.6561956592 4.247778330369709 0.17945809548586508
0.2919727117653329 14.498379956234213 905862.5399576041 4.494495578198599 0.18226808553579305
0.30550903284160824 14.301172715059284 738587.6964493394 4.75174099157838 0.1850927298315531
0.31942687065680564 14.128081385959229 605056.4948860825 5.020196096173619 0.18793863042184145
0.333727123855233 13.975888090299293 497644.71140102955 5.30008595379033 0.19080242996097715
0.3484080152086947 13.841968450680204 410970.06802353816 5.592138082039926 0.19369040273833035
0.3634734379730149 13.723883698898797 340624.79922881216 5.896521165663446 0.19659763761637886
0.3789263003526756 13.619950449889409 283269.6557523926 6.214098742947566 0.19953180378766222
0.3947594520420419 13.528398634685404 236379.43295238612 6.545126697633642 0.2024890521987317
0.41098606312243396 13.447812445939553 197836.73278465404 6.890310546803413 0.20547314654104837
0.42759518171854755 13.37700928976274 166052.7447861536 7.250354106085936 0.2084871361294194
0.44459116414238586 13.314916536606876 139785.17709944388 7.62551425977935 0.21152653392466714
0.46197461763934666 13.260520364436465 117966.92369939438 8.016744235782731 0.21459756669974595
0.47974069333326796 13.21311393148969 99796.84482475514 8.424747253007201 0.21770185120082752
0.4978990058540254 13.171963100860022 84631.4056022354 8.849961471810621 0.22083681571525773
0.5164392095324267 13.13636562914834 71927.98954274518 9.293265664987395 0.2240059447611525
0.5353590473078662 13.105820889180116 61263.69149914528 9.7555423092953 0.2272121213714523
0.5546669683519808 13.079799065652598 52296.54110279848 10.2376011912118 0.230456696800604
0.5743517055433128 13.057827658439153 44720.99621150849 10.739909351634937 0.2337363143185407
0.5944103419473673 13.039497053691253 38320.5722866723 11.263719859428269 0.23705726629188287
0.6148484160219235 13.024502682407704 32895.60600495673 11.809966648890345 0.24042111808334665
0.6356549157032608 13.012431105196887 28286.469553678937 12.379628986327779 0.24382950311184676
0.6568267245665242 13.003025382290316 24366.44285369467 12.973390408713588 0.2472803092281754
0.6783598665262042 12.995968456863817 21023.39874471977 13.592588815714835 0.25077844505165364
0.7002502756163883 12.991045065919558 18168.61597122749 14.238416984105497 0.2543264885132136
0.7224883248043462 12.987995952852142 15725.325102088147 14.912064942446753 0.2579264248847164
0.7450755760152495 12.986639070476192 13630.834709443272 15.614554073430165 0.2615780661862442
0.767998059412855 12.986762237214373 11833.495909889338 16.347167428781272 0.2652834745136119
0.791244493599178 12.98814379852414 10285.925154703304 17.11151348346839 0.269047260122243
0.8148223436460185 12.990666811782543 8954.270786471656 17.909047731726037 0.2728718564740796
0.8387044070694778 12.994134948806359 7805.454915314269 18.741121900353516 0.27675822115124366
0.8628879647392396 12.998417432040368 6812.4052328687885 19.60910806585378 0.28070708006617967
0.887371260230434 13.003361439600042 5953.784023139494 20.515079462638276 0.2847246751320446
0.9121289710531156 13.00885182760757 5209.888080081609 21.460830807601592 0.28881402086697233
0.9371508355588041 13.014745236623586 4563.980048348265 22.447828802567486 0.2929748967569759
0.9624357812673362 13.020965405832625 4003.4961945048885 23.478134382464734 0.2972113850763017
0.9879565511358327 13.027354074977772 3515.4078846139487 24.554153698820254 0.3015294494211553
1.0137021520545377 13.033810599268728 3090.922960734489 25.677808191371398 0.30593056404010316
1.0396684388259798 13.040257539089106 2720.6556042498996 26.851101773894076 0.31041630229545836
1.0658208020361022 13.046588036271025 2397.466893651142 28.077111818790218 0.3149952479568069
1.0921550001765492 13.052719640145648 2115.056917476724 29.357867783247727 0.3196676682605518
1.1186541966685137 13.058549754301398 1867.8097307884111 30.69617773252175 0.32443860399209234
1.1452886772080748 13.064002157070032 1651.5546674517836 32.095388833609526 0.3293157544780369
1.172052189614329 13.069014400999633 1461.5718097190738 33.557498281589254 0.33429717952056354
1.1989090185319917 13.073475031097747 1294.9574458251577 35.08702306569456 0.33939627163900765
1.2258573284186942 13.077341486999277 1148.656505398278 36.68595431842994 0.3446095934938591
1.2528549600350793 13.080496227149832 1019.8146337394589 38.359376661192954 0.34995178030672613
1.2798988468434547 13.082944436685102 906.3879092909897 40.10956588763888 0.35541961350522716
1.3069432841256483 13.08452449173625 806.5210383524674 41.94192742942455 0.3610272652976456
1.3339818483769188 13.085243124915712 718.3453970098902 43.86001413335203 0.3667770504166204
1.3609914272198949 13.085029596266585 640.4017534323351 45.868448536922564 0.3726763519507007
1.3879233078836828 13.083768620330567 571.5969788949526 47.9725987483936 0.3787353158911249
1.414774398379301 13.081459815185145 510.6548255185263 50.177261813090944 0.3849597937439095
1.4415057346544307 13.078021159963743 456.7167027899206 52.48758405091258 0.39135637002898116
1.4681016608234772 13.073419333833506 408.87030280697667 54.91002074111253 0.397936932799973
1.4945117555834253 13.067548962799496 366.39269817209356 57.450763905377976 0.4047105466922675
1.520723859259176 13.060400379178805 328.73158852710776 60.11644386735001 0.4116869867252997
1.5467083374965338 13.051907787249629 295.18567308512615 62.91416871109687 0.41887679679871753
1.572424579343253 13.042022210311467 265.3693273055259 65.85156751778916 0.4262913529651199
1.597838192407385 13.030682957870317 238.8226798577033 68.93683776418052 0.43394293203847945
1.6229361105419517 13.017861309556789 215.15717189426448 72.17879731417365 0.4418447861657996
1.6476883274707532 13.003516788433389 194.02770110663351 75.5869414888415 0.4500112240654573
1.6720379674097234 12.98757958712094 175.1707648405342 79.17114209399807 0.4584561811190981
1.6959738751065547 12.970020256149525 158.30565857720347 82.9417327662687 0.46719351452926366
1.719454530479053 12.950803287723966 143.22539435375992 86.91138888423355 0.47624449687994985
1.7424282359329626 12.929827693245484 129.73233455586242 91.09162242375396 0.485623195807951
1.7649182386430975 12.907200994236455 117.63405869481635 95.49666871563277 0.4953520993615515
1.7868442953507462 12.88276193229045 106.78332339575581 100.14005886553264 0.5054481752075604
1.8081823624975029 12.856494901642069 97.0509391638344 105.0383963995122 0.5159374158015234
1.8288950082825974 12.828362272618769 88.2978031871464 110.20823019463631 0.5268423697711275
1.848968516645357 12.798376886022753 80.43115893061754 115.66728991964693 0.5381867535575583
1.868344006196304 12.76643119830299 73.35989761738819 121.43561873178271 0.5499992656824437
1.8870188809419022 12.732606439256736 66.97976216591971 127.53465678693227 0.5623097570237844
1.9049423380663133 12.696779652165688 61.232556507134994 133.98699296895438 0.5751480341845251
1.9220814020759465 12.658954620419983 56.05265733796217 140.8182758602711 0.58855023886226
1.9383932200306295 12.619058029145192 51.371226317571704 148.05618894451496 0.6025546274485803
1.9538871580877437 12.57720557063787 47.14662173223142 155.7291522592877 0.6171966637483837
1.9685013149708401 12.533262408117455 43.324748592420505 163.87091689065403 0.6325242747869202
1.9822065364904744 12.487278625221679 39.86605755289801 172.29852700923718 0.6480923044546034
1.9869509073024632 12.447324655394157 37.98966306841406 183.71581600274646 1.7378449713871558
