M[M_sun], R[km], Lambda[1], P_c[MeV/fm^3], rho_c[fm^-3]
0.24162668629717493 15.618656898711224 2160425.4255784233 3.5677272577965504 0.1711233750220791
0.2536402468228203 15.277381475971515 1723268.5071300187 3.784768590996353 0.17388753717567754
0.2660338216534151 14.98138570587966 1383151.9847581298 4.011294243467089 0.17666536517773887
0.2788055065095196 14.723698979191036 1116658.8429279001 4.247561892984192 0.17945558513835727
0.2919573034247653 14.498606282773354 906086.518115202 4.494195933128854 0.18226474891839742
0.30548879186520905 14.301459172958761 738810.048867478 4.75134796545773 0.18508848439934844
0.319399840603415 14.128428432718039 605229.2828704817 5.019706794758024 0.18793355373080164
0.3336971765555056 13.976190079394565 497840.47545846406 5.299487496278771 0.19079640448685634
0.34837222791638695 13.842227900055615 411153.4821208514 5.591428975144625 0.1936835419340497
0.363430358385786 13.724235507125499 340787.8409866392 5.895685479718805 0.1965897886771368
0.3788785067931514 13.620268432856607 283427.4852955757 6.213126366340702 0.19952293688382525
0.39470710895405875 13.528685575708902 236521.66753108628 6.5440186408482175 0.20247933603763493
0.41092742321817394 13.448086273635104 197959.97391136666 6.889045420767316 0.20546237219683544
0.4275307382844815 13.377258993684658 166168.31789246234 7.248920040697944 0.20847527247398404
0.4445203753557803 13.31511410758392 139883.88594825196 7.623915219482207 0.21151380453572236
0.46189479266487954 13.260757704702728 118050.85239329195 8.014952332039407 0.21458370487559938
0.47965617998526683 13.213306683416567 99875.05334596586 8.422748514872463 0.21768682348423896
0.49780566728743814 13.172145284654508 84701.94011655978 8.847763269625258 0.22082089979221617
0.5163379412243428 13.13654770622148 71984.67096734411 9.290832428370829 0.22398881462367726
0.5352495956939384 13.105983809827213 61320.51869606832 9.752857542748847 0.22719374003854553
0.554549784603863 13.079930056227598 52341.39458677624 10.234647397011253 0.23043702568350719
0.5742259659809543 13.057960488078269 44764.98864573121 10.736699364348734 0.23371570520583368
0.5942768187510468 13.039630034293713 38358.17913605915 11.260205410397184 0.2370353079507381
0.6147072683287115 13.024572445456538 32929.75722443544 11.806126979633882 0.24039776648792063
0.6355015039544698 13.012504573890359 28318.110544800616 12.375442043433072 0.2438047119122836
0.6566668773237768 13.003078147070402 24392.95685899252 12.96887541907341 0.24725450339885077
0.6781914985307238 12.996016140864183 21046.979967476655 13.587681672487674 0.25075112339286715
0.7000717319202199 12.991090284343091 18189.435299348934 14.233091380145654 0.25429759685181524
0.7222994013126508 12.98801917922678 15744.692194921861 14.906292880498077 0.2578959058173986
0.7448786507574537 12.986657016702873 13647.830103258935 15.608362069505386 0.2615464167694992
0.7677910070642866 12.98674537602964 11847.554743089819 16.340471640176823 0.2652500976867805
0.7910299980697547 12.988123506419958 10300.208510118498 17.104280310842817 0.26901208765312257
0.8145927904035055 12.990642058420848 8966.405221081508 17.90124134836931 0.2728348157432351
0.8384669397679558 12.994103765065594 7815.421923529458 18.732776928495294 0.27671988032335954
0.8626410000232514 12.998359023471757 6822.222440939387 19.600116014630657 0.28066673840333145
0.8871074966505514 13.003313496578738 5962.221071850984 20.505397060757463 0.28468224534572273
0.9118601404659793 13.008800337520027 5216.9928314264425 21.450411820959697 0.2887694097833747
0.9368723386433871 13.014688330106392 4570.456446802673 22.436716629219188 0.2929287431151992
0.9621405104624593 13.020877394903238 4009.4190825929372 23.466189592213954 0.2971628737339503
0.9876578272389054 13.027272737756014 3520.8813309530533 24.54132007845709 0.3014784675398581
1.0133986689648153 13.033733633800384 3095.956923615051 25.66413541322559 0.3058777981560101
1.0393483657964113 13.040179523680292 2724.8721012182064 26.836422710638036 0.3103608474377293
1.0654946914734393 13.046519641112555 2401.3939830476456 28.06135777067173 0.31493696688243145
1.091814665308498 13.052639462512765 2118.537725637906 29.341094579131692 0.3196072950245339
1.11830537577052 13.058482174659684 1871.0248371598059 30.678185149529078 0.32437513398969536
1.1449302691642524 13.063939365501936 1654.1760652922787 32.07622724798309 0.3292498918616039
1.1716843319150334 13.068951141989993 1464.1177344357955 33.53695974710529 0.33422796254174103
1.1985316569430937 13.073414229566504 1297.1429136103204 35.065002323201334 0.3393234550134193
1.2254709358607558 13.077290102484639 1150.6265891286287 36.66251526177945 0.3445339827253926
1.2524591820519224 13.080465479769384 1021.6125976975349 38.334293028607824 0.34987243787463296
1.2794943182751766 13.082909946382296 908.0046775032367 40.0828164333707 0.35533685963013667
1.3065314257570375 13.084507294400725 807.973199383573 41.91344497085339 0.36094115851031144
1.3335617209318953 13.08522829853885 719.5903765328713 43.829479395513 0.36668628538435927
1.360564809661211 13.085041373596447 641.5384780646078 45.83592549011466 0.3725817793485053
1.3874901873873162 13.083799150334373 572.6508206978918 47.93794850347663 0.3786366901087488
1.4143402453490599 13.081522393587992 511.5801779905586 50.14010449540007 0.3848556748449186
1.4410664293683646 13.078104275993775 457.5297670611142 52.44797863649889 0.39124762839986765
1.467651109372611 13.073506143219081 409.63954885797614 54.86779189644635 0.39782326034482374
1.4940560450977525 13.067661104981259 367.1235868525134 57.405722096397206 0.40459161150070355
1.520264024049109 13.060537681978834 329.3328987703808 60.06838408821821 0.411562431117101
1.546244714765625 13.052071511633441 295.7471132697445 62.86286908613147 0.4187462351746795
1.571958225026275 13.042214448359635 265.87422849164045 65.79678776243983 0.4261543694433607
1.5973749230373007 13.030903285093078 239.2759916081028 68.87831748921415 0.4337990778529576
1.6224674616769263 13.018115767687789 215.5859902431424 72.11625415528357 0.4416935768010553
1.6472189490540516 13.003807660003705 194.407405213411 75.52006904168357 0.4498521360984329
1.6715684211600736 12.987905322390327 175.5136941856762 79.0999567273871 0.45829010647320817
1.6955080613215123 12.970386568981098 158.62828444673292 82.86554011885272 0.46701842404741073
1.718979790443961 12.95119995191597 143.5132568257075 86.82979682991129 0.47605973102096444
1.7419858655959288 12.930322377835486 129.99287836346522 91.00459699692838 0.48542959626617216
1.7644648635168383 12.907695241157624 117.86918955411073 95.40337177786274 0.4951473850478902
1.7863919819824348 12.88329203105295 106.9949700751204 100.04040918696192 0.5052331355243836
1.8077341758145826 12.857069387410407 97.23924996770637 104.93187736599214 0.515711222410571
1.8284613496518478 12.82900353274921 88.477528392109 110.09401660833478 0.5266031525655063
1.8485374589722954 12.799052228649204 80.59316191693816 115.5448246318205 0.5379337825324307
1.8679320619532551 12.767190205755545 73.50286092957869 121.30441726140418 0.5497321875687281
1.88661127944003 12.733388228884753 67.11752141421971 127.39406214883941 0.5620277090702205
1.9045437489204737 12.69761266892364 61.3566492241044 133.83655738956182 0.5748510276409713
1.9216970316333353 12.659848980789269 56.16502886247691 140.65669824522703 0.5882354242232926
1.9380284914473542 12.620035677125587 51.475629008362766 147.88250195123356 0.6022205318755368
1.9535238835869744 12.578192085788146 47.23828178009783 155.54286531795054 0.6168436313469641
1.9681622309047042 12.534339693111217 43.40935417455681 163.67058804757065 0.6321495834375089
1.9818953386517955 12.488396788972487 39.9439145995745 172.29979810810366 0.6481813562340583
1.9946968858163425 12.440373421351927 36.80352551695516 181.46971486726997 0.6649920808175279
2.0065459731278557 12.390253122057052 33.957435934508034 191.22205807253394 0.682635457172281
2.0174174718310813 12.338053503754816 31.378546750855747 201.60273229122825 0.7011705492250945
2.027273844932638 12.283726978416972 29.03854817068187 212.6620963445309 0.720661658905925
2.0361039765470133 12.227321674716753 26.911732782847135 224.45438473071633 0.7411753259324055
2.04387009139326 12.168790911127058 24.980140764389645 237.04170214253034 0.7627921236287487
2.050552786983911 12.10815057615848 23.223033886171148 250.48965132498697 0.7855909255813547
2.0561430029245242 12.04543677881961 21.625810869358364 264.87204978710366 0.8096626807586363
2.060619186439145 11.980675028932563 20.171673445886025 280.27034260167267 0.8351066322772237
2.0639576009001503 11.913856724543134 18.84923341671195 296.7736044818457 0.8620281944455609
2.066138986184083 11.845006416389232 17.644216916822096 314.4815948404834 0.8905464863475528
2.06715872184581 11.77418389856107 16.54772709323686 333.5043298405912 0.9207901319835475
