M[M_sun], R[km], Lambda[1], P_c[MeV/fm^3], rho_c[fm^-3]
0.24162668629717493 15.618656898711224 2160425.4255784233 3.5677272577965504 0.1711233750220791
0.2536444855356274 15.277262034780843 1723174.1956781095 3.7848282873418535 0.17388828126182573
0.2660410596618249 14.981241426880132 1382932.884969372 4.011419736242743 0.1766668816838719
0.2788166978886481 14.723469628054303 1116392.8979483854 4.247757426923993 0.17945785303739561
0.2919711167200662 14.498387769906845 905894.898758804 4.494466638279501 0.18226776328307728
0.30550691978970096 14.301194800965023 738591.288534984 4.751703032450176 0.1850923198005224
0.31942427443248256 14.128112927335971 605079.1443126095 5.020148838137161 0.18793814010147328
0.33372313397500336 13.975897059201024 497667.66094535735 5.300028152564994 0.19080184799854757
0.3484045830680911 13.841997423559048 410988.10673540423 5.592069593225638 0.19368974009021148
0.36346778836919286 13.723991690731454 335703.38621493184 5.8964404504395995 0.19659687952191535
0.3789224097189923 13.619969809503724 283288.0137615631 6.214004824426377 0.19953094736383423
0.3947550045209479 13.528429827520343 236394.06049613125 6.545019673242266 0.2024881137394022
0.41098034880613943 13.447862912455772 197857.85202930265 6.890188350282126 0.20547210586419531
0.427589744202939 13.377034890196304 166068.07098483006 7.250215590616913 0.20848599022644265
0.44458491284005985 13.314904364665525 139788.32285651853 7.625359808127243 0.21152530439020428
0.4619670048997164 13.260549609100105 117976.32522310811 8.016571153732919 0.21459622777015983
0.4797316712658307 13.21313879903852 99799.57679152758 8.424554190724749 0.2177003996423596
0.4978901907504867 13.17199630285238 84638.12437919748 8.849749141082143 0.22083527835006161
0.516429083309265 13.13638842389153 71932.38873450953 9.293030629366655 0.22400429009572972
0.5353481455397264 13.105833415525012 61271.51841723188 9.75528297498 0.2272103458314561
0.5546563583218937 13.079788660273731 52299.96948036548 10.237315867544579 0.2304547966562854
0.5743396985868068 13.057830374133886 44725.81059496766 10.739599278314378 0.233734323551774
0.594396696476151 13.039515006137187 37988.06419677832 11.263380373009575 0.23705514517459542
0.6148348300709081 13.024508530000254 32897.66788803958 11.809595743593931 0.24041886236030263
0.6356399519602208 13.012425627463179 28289.100022380633 12.37922453122773 0.2438271083031876
0.6568113001382682 13.00302310718581 24367.77728418937 12.972954261148606 0.24727781638754467
0.6783438575244735 12.995972804855086 21025.46811710912 13.59211478173973 0.25077580575748154
0.7002329954455517 12.991060675950207 18170.391459809896 14.237902521696007 0.25432369752953377
0.7224680446493659 12.988007194983707 15727.804838339987 14.911507346234883 0.2579234766633568
0.7450561588307854 12.986641000607502 13632.031373003938 15.613955905114057 0.26157500874659295
0.7679784589583726 12.986761350397725 11835.068085280254 16.346520587143996 0.26528025017028356
0.7912243957656249 12.988130579369209 10218.984944401682 17.11081472171264 0.26904386228044536
0.8147995864537845 12.990672477447594 8955.180566762132 17.908293587777806 0.2728682781149691
0.8386838484175858 12.994129131914027 7806.690777809129 18.740315719304604 0.27675451716645316
0.8628637464927655 12.99840631663312 6813.227537156492 19.608239364337354 0.28070318275033684
0.887346178479084 13.003354226825785 5954.495820042511 20.514144059047002 0.284720576048471
0.9121021038712613 13.00884997182444 5210.310350735393 21.459824233957765 0.2888097110101201
0.9371236729804611 13.0147459656122 4564.6837679059345 22.44675525215477 0.2929704378397484
0.9624079669304113 13.020956943043611 4004.0131732876043 23.476980381555123 0.29720669833572066
0.9879286326381833 13.02733741033356 3516.0709516407715 24.552913814890744 0.30152452395090384
1.0136720883077013 13.033798598919411 3091.613228661633 25.676487224195863 0.30592546617336885
1.0396376678810302 13.040251180676766 2721.033040144669 26.849683572588606 0.31041094458630114
1.0657893978269974 13.04657941643424 2397.852811195313 28.07558974388132 0.31498961713986995
1.0921217733107171 13.05271096817142 2115.3305953883937 29.35624722967996 0.3196618352627328
1.1186207648221003 13.058546650650293 1868.3345953849273 30.69443935029713 0.32443247173615064
1.1452523284022431 13.063998768120118 1651.8411120445915 32.09353829694224 0.32930939621631866
1.1720163525683174 13.06901577926578 1461.8170856707718 33.55551388133978 0.33429049188712257
1.198874649645004 13.073472994257068 1295.1530557254293 35.08489543461555 0.3393892361398314
1.2258200217085942 13.077337629044823 1148.8773480178656 36.68368963133002 0.34460228796384074
1.2528163054500923 13.080497777675498 1019.9808992480885 38.356965726287946 0.3499441885038383
1.2798608253201846 13.082937617386097 906.5614240702574 40.1069812987 0.3554116176505056
1.306903712556922 13.08452607686899 806.5970652597307 41.93917536933667 0.3610189454030647
1.3339414620151266 13.08523683550936 718.4577932106014 43.85706374299842 0.36676828033065995
1.3609503061563515 13.085031347326408 640.5244152569576 45.865305999022524 0.3726672138773689
1.3878823071224324 13.083770435322691 571.712170830334 47.96925063854127 0.3787257860896918
1.4147396845999383 13.081481259400466 510.7148587964225 50.17367141325854 0.38494973304790886
1.441463784921362 13.078024140800775 456.7910412902006 52.48375706142322 0.39134586254969245
1.4680583007372665 13.073426125020964 408.94088635078424 54.90594021424 0.3979259487554989
1.4944673862910487 13.067558710942626 366.4556236045383 57.44641152049746 0.40469905399822975
1.5206790065124598 13.06041303820253 328.7792484821719 60.11179980800818 0.411674950805737
1.5466633172950477 13.051922877381745 295.2323832399595 62.90921152981299 0.41886418037823664
1.5723794490167513 13.042039752477141 265.41128389681836 65.84627398722574 0.42627811584030084
1.597803989248763 13.030710440280814 238.8766764652939 68.9311827131441 0.4339290308262688
1.6228916520125087 13.017884401062034 215.19274446902682 72.17275344673249 0.44183017402639707
1.6476429895121885 13.003545699836852 194.05946578025498 75.58047918461865 0.44999585039685686
1.6719925100676214 12.987609645251082 175.19176608623135 79.16426293683394 0.45844013212413687
1.6959286912124254 12.970056964555052 158.3333245001934 82.93436962915264 0.4671765940616159
1.7194095430655518 12.950842509285236 143.2511033710469 86.90350385800731 0.47622664117505414
1.742391542145915 12.929899881256937 129.75875145011295 91.08321222654754 0.48560448621484903
1.764873791498667 12.907250437697837 117.6590036176747 95.48765231627787 0.49533231536810274
1.7868000781406388 12.882811311261152 106.80675171317903 100.13042841280037 0.5054273931083695
1.8081380906767681 12.856551162265445 97.0662691906342 105.02810194736749 0.5159155555108161
1.828847991887343 12.828413245277103 88.3120630538148 110.19721726361982 0.5268193446618972
1.8489269988518764 12.798444194318877 80.44750347492072 115.65545403339299 0.538162304700808
1.8683026873789748 12.766502220043618 73.37149864939359 121.42293835323046 0.5499734530785517
1.8869812540730588 12.732679838127712 66.99579408034569 127.52110893018651 0.5622826420611424
1.9049038834613892 12.696860049896035 61.24477317026662 133.97245327130565 0.5751193283068304
1.922044526783408 12.659040740400954 56.06346532680184 140.80265904984626 0.5885198113767796
1.9383575526543118 12.619149986273072 51.382169855374315 148.03940148499134 0.6025223359349584
1.9538529024093445 12.577303269014442 47.154800761376784 155.71114672047676 0.6171625414499571
1.9684685745042079 12.53336870543473 43.332285000523356 163.85158414225637 0.632488161052247
1.9821825997510818 12.48736384938008 39.8721926811116 172.49454523419067 0.6485409355091676
1.9949715277523827 12.439284987550993 36.73808473438453 181.67923216644823 0.665373719483103
2.0068063243038177 12.389122620105574 33.896817978294806 191.44770567090796 0.6830411065661139
2.0176525522608344 12.33684495150891 31.322671917987982 201.8460105378024 0.7016023441153434
2.027487776192572 12.282456636092173 28.98669580715243 212.92404886287764 0.7211199291646514
2.0362967378719614 12.225987234979574 26.865171802655883 224.7374352200763 0.7416645854417407
2.044039808016842 12.167388865257761 24.93831276111771 237.34722913806888 0.7633130752223298
2.0506975465357904 12.106679084274022 23.183173431665836 250.82037173686325 0.7861482056270936
2.0562694354526885 12.043928757132491 21.590061532788614 265.23007031973776 0.810258447725494
2.0607142397823366 11.979076057108895 20.13830727133933 280.6578394882064 0.8357427136658788
2.0640193304350816 11.912177427395141 18.81847248418633 297.1936723759766 0.8627087797022864
2.066178057154174 11.84327175621743 17.61555079489707 314.93791097962514 0.8912769587358418
2.067169306965314 11.772379041396597 16.521020902232188 333.99990280016175 0.9215728498871005
