M[M_sun], R[km], Lambda[1], P_c[MeV/fm^3], rho_c[fm^-3]
0.24162668629717493 15.618656898711224 2160425.4255784233 3.5677272577965504 0.1711233750220791
0.2536376363562852 15.277470691395397 1723359.6565395736 3.7847158447446647 0.17388687971909586
0.2660271486196037 14.981554320828193 1383347.1931329705 4.011183363412955 0.1766640252577216
0.2787966608120878 14.723865273926995 1116736.2214539305 4.247389131067466 0.17945358136046993
0.2919442010504289 14.498809202688124 906261.2735782233 4.493956759239741 0.1822620856616328
0.30547263420430737 14.30167872121864 738984.5764508633 4.75103426235747 0.18508509580715427
0.3193820300574676 14.128570601162924 605377.7000339163 5.019316255103078 0.18792950173114714
0.3336705620068991 13.976475851623137 498027.37017242896 5.299009842753391 0.1907915953084263
0.34834423421321714 13.842449158465769 411268.955658891 5.5908630187372 0.19367806615011865
0.363397814154193 13.724466798165079 340915.12401958293 5.895018510831763 0.19658352436420404
0.3788432071287596 13.620446176598481 283543.1026997099 6.2123503189381895 0.19951586026593626
0.39466430024810123 13.528926000164855 236621.92149448805 6.543134324218934 0.20247158177544936
0.4108800588410848 13.448325520415596 198067.85551941112 6.8880357703960415 0.2054537735905903
0.4274771945261366 13.377476161915052 166264.07841291523 7.2477755884868955 0.20846580471414
0.44446218603438437 13.31534029386224 139964.6952179132 7.622639131848572 0.21150364605763697
0.4618324778828935 13.26093688814539 118121.38979009137 8.013522360475873 0.2145726428894731
0.4795863244726639 13.213495347458476 99941.5191400862 8.421153516316355 0.21767483132486412
0.4977312812828268 13.172306314779737 84753.05931918653 8.846009127766182 0.2208081990556693
0.516257811973808 13.136690758668758 72042.8115069412 9.288890768289157 0.2239751452156539
0.5351632480364975 13.106099384319222 61367.03084419622 9.750715208681148 0.22717907248551458
0.5544578611917135 13.08005937809884 52381.230684937065 10.23229043420356 0.23042132923066214
0.5741250181331442 13.058034484226905 44799.66948132281 10.734138015135574 0.2336992605504785
0.594173856354991 13.039719754229873 38388.764253400535 11.257401173919606 0.2370177870304799
0.6145940083224574 13.024648885410324 32956.67076052524 11.803063301658051 0.24037913421419377
0.6353819966202878 13.012559620361312 28342.05819884014 12.3721013374533 0.24378493134428708
0.6565353938956165 13.00311545601871 24417.045571897386 12.965273025356 0.24723391359359312
0.6780573135297578 12.996053028630618 21067.671575701203 13.583766462065395 0.25072932455018354
0.6999308699866358 12.991118675431863 18070.341463894838 14.228842375661063 0.2542745457951136
0.7221486325573075 12.988023425413301 15759.983929176793 14.901687757399595 0.2578715567956626
0.7447217364223162 12.986648165227376 13661.034793548746 15.603421980060284 0.2615211663091467
0.7676260560810746 12.986749284802068 11859.32134764811 16.33512972165605 0.2652234695627539
0.7908557508580593 12.988112815736109 10310.49914470505 17.098509773346596 0.2689840274833464
0.8144133590326686 12.990613100954699 8975.873035499491 17.895013626695988 0.2728052656491986
0.8382786868230235 12.994068268927139 7823.69778838312 18.726119637164 0.27668929351426724
0.8624427313542251 12.998333395327387 6829.422833518548 19.592942643518118 0.28063455601115794
0.8869030185891791 13.00326406260721 5969.020786126227 20.497673111185026 0.284648397801079
0.9116464764473544 13.008757292569639 5223.108191460119 21.44210043298048 0.2887338228269175
0.9366502002278115 13.014635862960388 4576.211981721561 22.42785241199213 0.2928919262033579
0.9619115300692284 13.02082273700088 4014.0675410086556 23.456661376617564 0.29712417681930464
0.9874211407855525 13.027210551227665 3525.046143013831 24.53108305174763 0.30143780069248616
1.0131482810775683 13.033674940382488 3099.4387869696807 25.653229184137363 0.3058357089175375
1.03909407095719 13.040119293178368 2728.3023824655447 26.82471403777067 0.3103166141800118
1.0652333451637037 13.046453501052937 2404.280673393653 28.048791890941388 0.3148904802292456
1.0915430675777036 13.052583681318941 2121.1304665140287 29.327716006018093 0.3195591403758107
1.118026403656384 13.058416453857122 1873.4478822334684 30.663834269833796 0.32432451033165643
1.144641610090063 13.063885573960102 1656.3548329028476 32.06083678740825 0.3291966656618996
1.1713899537015484 13.068904461577308 1466.0075753922852 33.520578822513315 0.33417275713692207
1.1982355458370486 13.073379459212964 1298.9937302462295 35.04743959946005 0.33926537984727206
1.225161772979188 13.077250366969787 1152.1857003862035 36.6438216742789 0.34447368010582097
1.25214392170418 13.080423930066097 1023.0132845888357 38.31425366528574 0.3498089575646938
1.2791715107801038 13.082886522467438 909.2561792087638 40.06148349991337 0.3552708626608923
1.3062029106950515 13.084490209360762 809.0631423253884 41.89073035484422 0.3608724887848665
1.3332264954496422 13.085226942528417 720.6287247227332 43.80512863806662 0.36661390233994423
1.3602232932186142 13.085052520242765 642.5323192546721 45.80998957896769 0.37250636124201714
1.3871428144017264 13.083822227914393 573.4395288996648 47.91031674953347 0.3785580412173023
1.4139808142646424 13.081543921450729 512.377646771258 50.110474170730804 0.38477264740986605
1.4407103891052342 13.078155318375895 458.23230503370223 52.41639674327604 0.3911609163537905
1.4672848868817183 13.073565784839005 410.26975510064057 54.83411871345464 0.39773261819219996
1.4936910862107795 13.067748942759977 367.6475156177378 57.36980659071494 0.4044967747779986
1.5198963866147708 13.060649256284604 329.8338254836644 60.030062903037305 0.4114631148361415
1.54587476732659 13.052203632681248 296.20809352119005 62.821965427639675 0.4186421321118329
1.571586844045322 13.042368630240544 266.2930255918231 65.75311017453168 0.4260451482579894
1.5970020394768893 13.03108150268794 239.65899554288464 68.83165850342866 0.4336843810166679
1.622094658722563 13.018315618470401 215.9017252655021 72.06638880182165 0.4415730183170654
1.6468441667374094 13.004033724289608 194.70985883484997 75.46675320560281 0.44972529898789226
1.6711985374782043 12.98816358013725 175.78924532185312 79.04293990439857 0.45815660086555776
1.6951216198415182 12.970646079735461 158.87064667302184 82.80479618941072 0.46687883467446806
1.7186182083557144 12.951527560927794 143.74043335606484 86.7647498948225 0.47591243171668934
1.741616957879385 12.930676346614849 130.2038850558753 90.93521996894418 0.48527525791567333
1.7640995869704492 12.90808686405795 118.06243847051563 95.32899702959082 0.4949841902431073
1.7860306493852467 12.88371568101607 107.17416894871585 99.96097197992823 0.5050617134778906
1.8073743091403611 12.857516645980548 97.39877478731819 104.84696618300684 0.5155309133355209
1.8281108541383957 12.82949871511427 88.62178944695329 110.00282377609543 0.5264119067484784
1.8481943263605476 12.799589694207421 80.7274566128733 115.44720722032378 0.5377321386454575
1.8675960250854469 12.767766941880417 73.62351701887535 121.19983896706391 0.5495193044851207
1.8862838339013466 12.7340077616696 67.2264976589323 127.28193645520201 0.5618026736977568
1.9042138644664865 12.698246215473871 61.45825904596639 133.71662594222806 0.5746142018375835
1.9213785969305002 12.660529209894975 56.257353635192956 140.52791808592715 0.5879845115003569
1.937725477083251 12.620766556994317 51.55803083233627 147.74407455469685 0.601954259891106
1.9532415385622408 12.579001098242179 47.31968084747859 155.39439994741272 0.6165622746082018
1.9678976234239638 12.53521211782065 43.481146884093896 163.51072001994973 0.6318502411023221
1.981640841305417 12.489309407607658 40.00815445311294 172.12799353385566 0.6478641378724328
1.9944702028273535 12.441370739963249 36.86040232082957 181.28488556309068 0.6646554116771619
2.0063215153534664 12.391267620151202 34.012397655257914 191.0230052015273 0.6822776174387922
2.017206177336714 12.33911006138468 31.429548690962598 201.38813348683016 0.7007896575157144
2.027080211200225 12.284841627611621 29.08450369255377 212.43068635654987 0.7202562933260744
2.035933023739298 12.228499441108514 26.954888495032854 224.2047183167936 0.7407437715922258
2.043720147581349 12.170025067813159 25.018853838350648 236.77208230755377 0.7623321845993687
2.0504235393394445 12.109443104595554 23.259983556963988 250.19782286207038 0.7850989687574625
2.0560356091634273 12.046791063630419 21.658201685770262 264.55628861852074 0.8091372358287772
2.060529940436178 11.982069870462114 20.203639057425136 279.92825064644427 0.83454452173198
2.063890963984203 11.915316255403395 18.876862565942897 296.4031467880804 0.8614279866026384
2.0661027154570872 11.84653749120996 17.66902419933186 314.0791858912658 0.8899023087676043
2.0671476482733597 11.77577269192086 16.57023775203846 333.0673188829131 0.920099908084084
