M[M_sun], R[km], Lambda[1], P_c[MeV/fm^3], rho_c[fm^-3]
0.24162668629717493 15.618656898711224 2160425.4255784233 3.5677272577965504 0.1711233750220791
0.2536439506004856 15.277299717587006 1723258.9975936157 3.7848190100597643 0.17388816562498
0.26603986302969457 14.98125448297455 1382991.3645546767 4.011400233493075 0.17666664600465187
0.2788147579052401 14.723529449538907 1116346.0716719946 4.247727038845711 0.1794575005814814
0.2919688322011164 14.498443859266125 905913.9384317156 4.494424567411909 0.1822672948142025
0.30550413384909036 14.301241743766315 738657.7210727558 4.75164785023016 0.18509172372722937
0.3194205189593853 14.128156408809453 605108.5604752603 5.0200801380225935 0.18793742731126883
0.3337189510610978 13.975941883756484 497685.931742868 5.2999441257992945 0.1908010019884426
0.348399591243095 13.842038520301381 411012.64742638177 5.591970029957556 0.19368877678820387
0.3634622078013339 13.723997618929554 340659.9224654358 5.896323113760503 0.19659577747099416
0.3789153872618294 13.620006685529688 283306.26679766685 6.213868294318865 0.19952970237364667
0.39474534389028004 13.52850665758795 236407.31975632493 6.544864091402593 0.20248674949684906
0.4109720423685966 13.447905450697204 197873.5233173863 6.890010713110258 0.20547059303149715
0.4275809804191239 13.377061199266828 166091.40972133726 7.250014231098703 0.20848432443075254
0.44457476998524526 13.314933245385433 139812.70398977702 7.625135282746882 0.21152351702380726
0.4619558434897694 13.260578708095936 117981.118387375 8.016319546101194 0.21459428138171238
0.4797203839888463 13.21316024085601 99812.66954231673 8.424273538739644 0.2176982895317759
0.4978770513047363 13.171993035423299 84648.77848439946 8.849440479507479 0.2208330435083801
0.5164167253039308 13.136396578039674 71941.44066603422 9.292688962927818 0.22400188474269989
0.53533388865519 13.105844732588077 61277.878434880186 9.754905986966772 0.22720776477196616
0.5546400397084211 13.079827510782332 52301.08933247605 10.23690110046834 0.23045203446935883
0.57432213686412 13.05784318718365 44732.15078515357 10.73914853431521 0.23373142963567636
0.5943782285803719 13.039526338156714 38330.45383601165 11.26288687331164 0.23705206177955218
0.614814856090528 13.024523171541627 32903.04984318933 11.80905657268041 0.2404155833015616
0.6356198945543862 13.012428810298463 28293.228362356924 12.378636591683442 0.24382362706951902
0.6567888489723399 13.003015937049799 24372.00124116742 12.972320252895265 0.2472741926563559
0.6783208318014274 12.995973449625623 21029.04479563998 13.591425701384967 0.2507719691426819
0.7002073843987429 12.991059463646414 18172.869696322898 14.23715467430107 0.25431964042091754
0.7224422916997142 12.987998688211414 15730.908169239683 14.910696799445802 0.257919190996945
0.745028238909244 12.986652589872369 13634.511287954718 15.613086382660223 0.261570564324586
0.7679493094550269 12.986759666303337 11836.967870316581 16.345580313418285 0.2652755631415897
0.7911930221348078 12.988141211047285 10289.233601846025 17.10979897741182 0.26903892305987037
0.8147657762763683 12.99066581768078 8956.78938512701 17.907197340703636 0.2728630765009876
0.8386489973575423 12.994129380343132 7807.886872950741 18.739143831843666 0.276749132949921
0.8628299379643943 12.998404215153231 6815.147800789374 19.606976598492206 0.2806975175163744
0.8873089636990317 13.003363014229208 5955.827052475697 20.512784336813773 0.28471461753481675
0.9120644730134556 13.008841247241726 5211.644137425447 21.458361061110992 0.28880344612770603
0.9370842330181609 13.014730089093591 4565.52744592617 22.445194723888793 0.2929639562937616
0.9623617743931371 13.020936097716387 4004.615163168283 23.47530291353745 0.29719988563967664
0.9878870877004977 13.027330261603769 3516.7497504485386 24.55111151099498 0.3015173642531198
1.0136278902178906 13.033786898137482 3092.0660313749518 25.674567061093096 0.3059180558941527
1.0395930327148684 13.040238986033957 2721.6925192313447 26.847622074900688 0.31040315661924917
1.0657431041747363 13.046571485798802 2398.508548752653 28.073377261278388 0.31498143220466057
1.092073881002573 13.052702715133373 2115.906992887408 29.353891603834512 0.3196533564560508
1.1185715609283147 13.058532852893393 1868.740850380753 30.69191245621785 0.3244235579535473
1.1452019151172057 13.063988039479947 1652.228490263193 32.0908483821544 0.3293001539340536
1.171964960390998 13.06900281177977 1455.327146821542 33.55262939210469 0.33428077086099706
1.1988199849462295 13.07345771742325 1295.5222610721444 35.08180275606399 0.3393790094902885
1.2257666416302715 13.077331896094092 1149.145408357238 36.680397738488 0.34459166882710646
1.252761648193419 13.080495315520638 1020.267104271693 38.35346125924384 0.34993315327307756
1.2798023654280584 13.082931595259284 906.7525942279359 40.10322442374375 0.3553999951344818
1.3068466073820655 13.084522381871242 806.8125477836576 41.935175073113676 0.36100685190154036
1.333883886035149 13.085232162573448 718.6669718310877 43.852775173543165 0.3667555324843541
1.3608899688098914 13.085033972555365 640.6792533087855 45.86073814266035 0.3726539311715641
1.3878210128968733 13.083778011257342 571.8425268832243 47.964383983760314 0.37871193401919484
1.4146782008826508 13.0814896871279 510.8592340807386 50.16845259315828 0.38493510933886205
1.4414006620840765 13.078035806433807 456.9201173008991 52.478194361072525 0.39133058945869315
1.4679947786232543 13.073439831609374 409.0426363386737 54.90000900150019 0.3979099829975087
1.4944033495535376 13.067575924105382 366.5532525887456 57.44008516793972 0.40468234894196353
1.5206152188546787 13.060432252320163 328.86204745133864 60.10504951426292 0.4116574561988505
1.5465984913995872 13.051946657632175 295.31416382130834 62.902006123095354 0.418845842045285
1.5723141597993597 13.042068036458602 265.4882653704702 65.83857970904644 0.4262588753505309
1.5977383733060235 13.030742150065045 238.94025701857777 68.92296297998482 0.43390882512799567
1.6228255234442748 13.017923084990626 215.261009887644 72.16396858717977 0.441808935044294
1.6475767857358927 13.003586566988009 194.1113668494809 75.57108614914979 0.44997350458807556
1.6719262538820139 12.987653808193294 175.25413915223044 79.15426402681 0.458416804781446
1.6958641125622533 12.970108367652417 158.37565699325407 82.92366728478521 0.46715200010542984
1.7193439575519682 12.950899585915144 143.29086119056458 86.89204298382013 0.4762006879338776
1.7423299627456004 12.929960894799434 129.78995293560098 91.07098805213732 0.48557729192634314
1.7648097749362297 12.90731776204041 117.68837569196106 95.47454707584247 0.4953035595443294
1.7867364096695957 12.88288328281182 106.83280039026923 100.11643069505011 0.5053971866407382
1.8080757317321194 12.856631708075248 97.09307496770946 105.01313916368434 0.5158837820083018
1.828786417647107 12.828501102249039 88.33962996768997 110.18121023719031 0.5267858782276263
1.8488664459423236 12.798539985547698 80.47207642621102 115.63825092773352 0.5381267690208509
1.8682530294567938 12.766635823104963 73.38582415017666 121.40450786728711 0.5499359353631906
1.8869238765712777 12.732788271430085 67.01240197239929 127.50137880997549 0.5622430927528259
1.904847033471516 12.69697846065206 61.26326785224928 133.9513204744474 0.5750776056041571
1.9219908218765762 12.659165182023667 56.079463423700226 140.7799608048479 0.5884755865638165
1.9383082920103747 12.619293161927793 51.39825560377892 148.01500185704543 0.6024754020366473
1.9538059214788925 12.57744209095962 47.167108800810546 155.68497677815256 0.6171129467896046
1.968421159660379 12.53352028208911 43.34313738613135 163.82348528897805 0.6324356721608054
1.982138014057511 12.487525683816678 39.88246680632874 172.46425873474146 0.648485014799392
1.9949262641679817 12.439456757457085 36.746225345666716 181.64664822512137 0.6653143673821742
2.006766795947159 12.38930005636574 33.906024471976316 191.41261268132368 0.6829780194778611
2.0176155558166653 12.337032979042936 31.330969021982074 201.80817507276646 0.7015351898970655
2.0274541266066946 12.282653284142345 28.993948216988272 212.8833085626503 0.7210486564468184
2.03626700940612 12.226196561044995 26.8723235391051 224.69341297588088 0.741588491944628
2.04401462262943 12.167605619451809 24.944484701271534 237.29971047449467 0.7632320515357971
2.0506747745479714 12.106906828856017 23.189381942495896 250.7690133255436 0.7860617889827729
2.056251529901434 12.044166914675152 21.596035177309663 265.17438553150976 0.8101657850026646
2.0607004436156537 11.979327080801761 20.14419027917616 280.59761665647596 0.8356439342050996
2.06400779540049 11.912432860521344 18.822878481477694 297.12833490462924 0.8626029212914628
2.066172001771465 11.843541878026112 17.619679170460707 314.8669341768579 0.8911633388346741
2.0671678531704325 11.7726586544216 16.524955211072694 333.9228185129077 0.9214511014128323
