M[M_sun], R[km], Lambda[1], P_c[MeV/fm^3], rho_c[fm^-3]
0.24162668629717493 15.618656898711224 2160425.4255784233 3.5677272577965504 0.1711233750220791
0.25363195287483475 15.277609785085156 1723590.93525468 3.784608011307282 0.17388553562731948
0.2660153981965334 14.981779223359247 1383717.501562528 4.010956689154371 0.17666128603308062
0.2787774582570414 14.72425035381928 1117147.4374947997 4.24703596077737 0.1794494851173211
0.29191819760101567 14.49922114153533 906604.9074357349 4.493467839458408 0.1822566414263953
0.3054391598101774 14.302109982821982 739353.604183619 4.750393008224687 0.1850781690386683
0.31933955965286726 14.129085416260638 605739.7891052 5.018517957716766 0.18792121908764964
0.3336224487651455 13.976888417516566 498344.12891042 5.298033504302104 0.19078176520026027
0.34828606111430355 13.843007240482637 411607.68941256654 5.589706216694869 0.19366687377213382
0.3633319971339349 13.724928864874192 341190.2988010441 5.893655278881395 0.19657072060123554
0.37876609644599346 13.620947147154245 283800.30081816437 6.210764182164376 0.19950139660839208
0.39457854587995955 13.529385758106013 236857.73471843053 6.5413269445074596 0.2024557334970301
0.4107849060703503 13.448739609438856 198280.24723501777 6.885972286632473 0.2054362000969524
0.4273715597522055 13.377877970122443 166442.83216973784 7.245436663925963 0.20844645539066242
0.44434366959137883 13.315740180310419 140132.22835587093 7.620031244904746 0.2114828856006983
0.46170451136507484 13.261301432005816 118268.52570923424 8.01060006344999 0.21455003655940222
0.47944586458482347 13.213840899368794 100065.36348119189 8.41789405376367 0.217650324723113
0.49758017856576203 13.172606854504863 84872.80650178879 8.842424529208895 0.22078224503053342
0.5160911526991395 13.136972254235108 72147.81805209882 9.284923076652225 0.22394721241917315
0.5349865643312425 13.106357477186686 61456.58417089775 9.746337560702242 0.22714910079022688
0.5542681690228212 13.080300653626137 52461.38011918817 10.227474336015463 0.23038925589549542
0.5739211252597644 13.0582402410765 44869.874598130686 10.728904398339584 0.23366565910947665
0.5939563377301669 13.039889710400729 38116.30193809935 11.25167140876146 0.23698198735408427
0.6143629144170601 13.024798249275559 33012.82881884757 11.796803589304432 0.2403410647189843
0.6351356149293885 13.012683547228445 28390.764432801934 12.365275772569392 0.24374451666813227
0.6562754217563597 13.003215752315105 24458.415133892366 12.957912948704998 0.24719184641359745
0.6777814078308049 12.996139855451592 21104.840800190945 13.575767467505981 0.2506847882915356
0.6996400139790739 12.991169237247506 18241.510167343044 14.22016163851202 0.25422745237241656
0.7218433836990716 12.988054691968154 15790.69624288519 14.892279704105537 0.2578218128715044
0.7443988754810605 12.986665320300046 13688.195367204607 15.593329815435627 0.2614695818579828
0.7672881423650394 12.986736691940544 11884.983294604404 16.32421692958345 0.26516907203129475
0.7905032104861824 12.988074357377554 10332.459172775232 17.086721669248544 0.26892670592490453
0.8140370295877555 12.990562308354123 8995.176904123686 17.882291903986353 0.2727449019845882
0.8378915997597666 12.99401619872061 7841.805899893363 18.712453112560915 0.27662621421693906
0.8620442099611908 12.998261891448731 6844.782783460289 19.578289862883462 0.28056881822547536
0.8864824678867157 13.003165323220024 5982.5714599780395 20.481896086727794 0.28457926043364107
0.9112094979704117 13.008650046474814 5235.367173840221 21.425123935996975 0.2886611343830068
0.9362012736339135 13.014530616906745 4586.891889612767 22.409747105697477 0.29281672706860806
0.9614407684955718 13.020710161241645 4023.9352770312576 23.437200347475393 0.2970451397975231
0.9869340979003299 13.027086330063362 3533.7083656128902 24.510174848202915 0.3013547423253932
1.0126433206199974 13.033541351130722 3107.4053662942347 25.630891852170684 0.3057492854187711
1.0385693463439483 13.039982195965525 2735.274739156516 26.8008012689105 0.31022627604521946
1.0646966221838685 13.046322158008852 2410.6231648171574 28.023129124107147 0.31479554249569947
1.090990488911637 13.052447618228634 2126.8025161941628 29.30039410166505 0.3194607982958745
1.117456874108408 13.058298972406345 1878.277650538086 30.634527505692596 0.3242211288221174
1.1440576560010591 13.063774182017704 1660.780860099008 32.02940790016782 0.3290879723436841
1.1707880339931673 13.06879455473745 1470.0073655800325 33.48712805547736 0.33406002460309253
1.1976134350349539 13.07326565603064 1302.5491933155552 35.011576541342535 0.3391467904365745
1.2245305613991997 13.077168627950732 1155.3893136709348 36.60565027051267 0.34435054506607743
1.2514971324113346 13.080354318906 1025.9828800388514 38.27333543170322 0.34967933757087305
1.2785123872620503 13.08283458010123 911.8717231985319 40.01792496467125 0.35513610710481963
1.3055315574171027 13.084466816211041 811.4171773696164 41.84430428286453 0.3607320133116282
1.3325487704009826 13.085252404356211 722.7415041294511 43.755410861145364 0.36646611539479346
1.359526893116464 13.085067155680008 644.4543943516595 45.75703665554365 0.37235238133381093
1.3864355770423074 13.083867824848081 575.1673537626758 47.85381112900359 0.3783969891678304
1.4132621153374585 13.08161509480294 513.8775162653101 50.04998185318236 0.38460314126970413
1.4399832423456558 13.078269206435316 459.6307356320558 52.3519218612869 0.39098389248449905
1.4665484115379215 13.073707968055537 411.51724289549986 54.76537627801837 0.397547575919063
1.4929466837771044 13.067932712464081 368.7902526214148 57.29648855284121 0.40430317476332495
1.51914690458287 13.060876439027787 330.8588193380385 59.951836091573995 0.4112603759085959
1.5451179626622453 13.05246674317218 297.13259973386477 62.73846928157173 0.418429627781852
1.57082523895377 13.042683097815223 267.1297204221581 65.66395424689719 0.42582220288564887
1.5962419449621215 13.031453269882212 240.4056131195663 68.7364197112123 0.4334502655944106
1.6213368006690398 13.018744048652971 216.58518425145098 71.96460839303856 0.44132694582522736
1.6460679810412873 13.004506070209825 195.33920484644636 75.35793341121851 0.4494664192758978
1.6704261034972885 12.988675387720582 176.359456056729 78.92654023868836 0.4578839950059291
1.6943659833950544 12.971260199438698 159.39463575133294 82.6808227498861 0.4665939440715097
1.717858191448877 12.952183361239765 144.2169638369371 86.63199884651125 0.4756118159070228
1.740862503362065 12.931393792379675 130.6239679098877 90.79363600524768 0.48496028571163224
1.763342249014069 12.90885019113619 118.45034964395168 95.17721915071438 0.49465115568649887
1.785290441067532 12.88457313061298 107.51466600893082 99.79886811817393 0.5047119003769018
1.8066404457626353 12.858440460993977 97.72667815958962 104.67322614302148 0.5151611950052131
1.8273940596087728 12.830515370668397 88.90994941038726 109.81674389293141 0.526021667752559
1.8474798224153524 12.800661120834194 80.99493842836834 115.24802476945375 0.5373206964345397
1.8669084265552613 12.76894973125091 73.86389456368606 120.98646083385577 0.5490849448002713
1.8856026760678464 12.735245666034455 67.4491947863565 127.05316724810868 0.561343535724502
1.9035607568234614 12.699609000092215 61.66144720429497 133.4711571838472 0.5741282631760849
1.920751650379273 12.661987569781736 56.44486875164815 140.26518791505106 0.5874726132162558
1.937136174163644 12.622376319367065 51.730988746271485 147.4616740439075 0.6014110484583012
1.952676265289118 12.58070341469643 47.47210634859885 155.09142173537316 0.615987931615556
1.9673385854640228 12.536956906340647 43.62326628821628 163.18460551753708 0.6312396132104088
1.9811253539817575 12.49119558824462 40.1365399071742 171.77754378925476 0.6472170707364097
1.993975419434718 12.443327165105641 36.98215093662794 180.90788352061918 0.6639686972293708
2.005865794388015 12.39335422303812 34.120307646037865 190.61700852839522 0.6815477523503048
2.0167767083598203 12.3412823384913 31.52879362853839 200.95044837821652 0.7000128096220011
2.0266911223551376 12.287133748407157 29.17689426990443 211.95833793848126 0.7194282639369082
2.035575874573378 12.230887452148318 27.037892695880913 223.6955575523799 0.7398636750895381
2.0434118263186902 12.172552427152702 25.097269060729616 236.2213705707814 0.7613913604837489
2.050164838944382 12.112103033805202 23.33192949043907 249.60273706686723 0.7840957886192895
2.0558113192700165 12.049545548069057 21.725557606373656 263.9124326433946 0.8080658220789235
2.060355943562304 11.984958587914688 20.263875228841542 279.2307412739935 0.833398404824907
2.0637725000762215 11.918333878676222 18.932955735400817 295.6467719171731 0.8602007534051018
2.0660281559986196 11.849667948566362 17.721481340825015 313.2587818867668 0.8885890033174502
2.067127326474307 11.779026464121866 16.586270298789135 332.1758396809967 0.9186908783137596
