M[M_sun], R[km], Lambda[1], P_c[MeV/fm^3], rho_c[fm^-3]
0.24162668629717493 15.618656898711224 2160425.4255784233 3.5677272577965504 0.1711233750220791
0.2536404338146634 15.277414206560271 1723179.9773849272 3.784771359644792 0.1738875716855447
0.2660341977125587 14.98140057405152 1383169.7640324277 4.011300063616832 0.1766654355108137
0.2788058782709831 14.72369629508245 1116598.9128278438 4.247570961435133 0.17945569031872233
0.29195823494345574 14.498571279573312 906045.4808376991 4.494208487735587 0.18226488871685717
0.305489267945684 14.30143840267368 738792.5517570183 4.751364432381399 0.18508866227355167
0.3194027388074568 14.128335409955213 605236.4842097622 5.0197272951836664 0.18793376643063014
0.3336972057964567 13.976159308256095 497848.99973527185 5.299512569777121 0.19079665693538025
0.3483729851180511 13.84226897066291 411140.436444232 5.591458684200267 0.19368382937733575
0.36343226337520873 13.724214653243024 340793.1766679163 5.8957204916084045 0.19659011751621322
0.3788802426933088 13.62026119625433 283423.56174935686 6.213167104584507 0.19952330836755672
0.39470930581263935 13.528678061695569 236513.46128299308 6.544065063032387 0.2024797430974768
0.4109296888479069 13.448072353658473 197962.8714723528 6.889098422831756 0.20546282358465764
0.42753367732944597 13.377243941831617 166170.6838589322 7.248980119797289 0.20847576949297597
0.444523167902672 13.315126425822156 139881.19391021074 7.6239822094562175 0.2115143378189899
0.461899871933696 13.26072919896863 118051.50780681797 8.015027401037429 0.21458428559498974
0.47965841390171865 13.213319129067667 99870.1754453498 8.422832248017396 0.21768745304043205
0.4978097396868892 13.172169618995245 84697.96707947955 8.847855358091572 0.22082156655205865
0.5163431026105065 13.13653025842925 71986.78113202244 9.290934362019323 0.22398953224291748
0.5352553136160351 13.105959233555245 61318.02449002328 9.752970012410357 0.22719451006538188
0.5545552091947907 13.079920878921737 52338.44218946261 10.234771135480823 0.230437849733444
0.574232138346737 13.057950085938414 44762.86950265568 10.736833833938944 0.23371656854225628
0.5942819205838484 13.039605000104922 38356.084745704386 11.260352632733047 0.23703622779855676
0.6147132263047478 13.024581041515034 32927.8376320797 11.806287824040185 0.24039874469027392
0.6355077546613247 13.012487210678369 28317.52668651077 12.375617433452819 0.24380575040960498
0.6566737359283393 13.003073295554927 24391.896538777986 12.96906454931389 0.24725558438974884
0.6781981858775284 12.99602072786703 21045.523670433337 13.587887227780627 0.25075226786966676
0.7000795218014625 12.991080803875393 18188.942703109693 14.233314462133883 0.2542988070824889
0.7223063188924531 12.988007993334584 15743.677266418445 14.906534661585734 0.25789718420514907
0.7448865622776271 12.98665976234696 13647.353636478123 15.608621439069115 0.2615477424946624
0.7677994601922583 12.98675866068007 11846.987611696315 16.340752109408946 0.2652514957555585
0.7910379027683361 12.988123201900581 10300.097165976893 17.104583286692073 0.2690135609220813
0.8146036890129222 12.990638498037894 8965.348634130192 17.901568331035534 0.27283636725260596
0.8384792324820808 12.994091555902806 7815.189766127332 18.73312646794416 0.27672148627627047
0.8626519658136574 12.99836779498801 6821.772333988048 19.600492654026997 0.2806684281467688
0.8871190873400604 13.003306969547559 5961.761961422238 20.505802611972214 0.28468402253402747
0.9118712109448233 13.008797721397961 5216.680680712809 21.450848219899125 0.28877127831725785
0.936884026206701 13.014683270479374 4570.292708775988 22.437182058441007 0.2929306762432114
0.9621538852565835 13.020878993115057 4009.1360245624114 23.466689890166084 0.2971649055925869
0.987671817937699 13.027272841014913 3520.5644477888263 24.541857598805198 0.3014806028530282
1.013411793084085 13.033747087570859 3095.7345975174712 25.664708075883674 0.3058800081714962
1.039361788604725 13.04018355977187 2724.6929433705845 26.837037513527605 0.31036317005233877
1.0655083470595694 13.046518011898092 2401.251964846797 28.062017590166697 0.3149394078416548
1.0918299041128974 13.052645411939315 2118.270654387924 29.34179707745931 0.31960982358717716
1.118320809581894 13.058481517962063 1870.9521987757864 30.678938710004424 0.32437779222310165
1.1449445531558553 13.063952653428066 1654.0110642470588 32.0770354042399 0.3292526867803205
1.1716990571560795 13.068956865289044 1463.9801879491272 33.53781991948878 0.3342308614113609
1.1985475938501868 13.073419283480305 1297.1002988954203 35.06592456155605 0.339326504605639
1.2254871227170612 13.077291431667884 1150.5173843643154 36.663496890857054 0.34453714930884405
1.2524757906411532 13.080459715908354 1021.5160432473239 38.33534533693734 0.3498757713567319
1.2795113248763164 13.0829127450699 907.939291978575 40.083936678899406 0.35534032529555265
1.3065489013617917 13.084507509119957 807.9113124866143 41.91463778189068 0.36094476455878727
1.3335795960010763 13.085235827456248 719.545544978108 43.83075813839586 0.3666900864695242
1.3605831227201568 13.085037026111415 641.528184373415 45.837287486634565 0.37258573984937193
1.3875082104190721 13.083797893099385 572.5980230668376 47.93939956806413 0.37864082030697865
1.414359245402285 13.081520078163143 511.5449357396111 50.141660530585526 0.3848600350269869
1.4410858790883136 13.078104286699833 457.5206041007332 52.44963717330166 0.391252182120528
1.4676671050433663 13.073504685231224 409.58960731164245 54.869560274645465 0.3978280205008999
1.4940740988991035 13.067654206177247 367.0767778116695 57.40760825010504 0.40459659198567155
1.520283628015459 13.060530203947058 329.32079812670634 60.070396599072765 0.41156764690289993
1.546264106150131 13.0520638492338 295.72983592414437 62.8650172417943 0.4187517024016274
1.5719780575317401 13.04220586102817 265.853709556199 65.79908162099086 0.4261601055190466
1.5973999563658643 13.030903413594077 239.273924728707 68.88076795010443 0.433805101561078
1.6224870237576043 13.018105910714013 215.56136867018455 72.11887303759116 0.4416999084212852
1.6472386762372189 13.003793579170559 194.3899797032955 75.52286917050745 0.4498587975385466
1.6715884771341065 12.987891032889769 175.49977890485584 79.10293741825 0.45829706039089
1.695527271493062 12.970370330842426 158.61144456231426 82.86873043434 0.4670257553831088
1.7189996259396576 12.951181851649563 143.501591125306 86.83321318224698 0.4760674673781275
1.7420055751987102 12.930304519348118 129.98326546167578 91.00824080854586 0.4854377024057822
1.7644839269465173 12.907676397387977 117.85940695477237 95.40727812704993 0.49515595645025223
1.7864107848062412 12.883270294418208 106.98640103813887 100.04458147435241 0.5052421391395628
1.8077537100261316 12.857043499892525 97.22993744041642 104.93633721332685 0.5157206929057344
1.828480472727439 12.82897670803225 88.46881175355902 110.09880645447917 0.5266131976317338
1.848556189266524 12.799023696182061 80.58925016204337 115.54995198594527 0.5379443738767387
1.8679502094665232 12.767160069202403 73.49535426656007 121.30991030336843 0.549743369389192
1.8866285861647822 12.733355438707745 67.11181293105774 127.3999516975316 0.5620395293474522
1.904560477795363 12.69757838274961 61.35128194125998 133.8428555365699 0.5748634621387226
1.9217127913242726 12.659811687900733 56.15997397314305 140.663462760872 0.5882486040721843
1.938045038776032 12.619999103533457 51.473276442703906 147.88977331504006 0.6022345187055915
1.9535392635063042 12.57815014175992 47.2373452800188 155.55066406066567 0.6168584107450743
1.9681755272856896 12.53429510029951 43.405286677178765 163.67898588617248 0.6321653078362834
1.9819088085797218 12.488348878010294 39.94103498338799 172.30882309693203 0.6481980198891579
1.9947095273590205 12.44032282343719 36.80053395030762 181.47942419270316 0.6650097664884319
2.0065586746417816 12.390201846935964 33.95578424051322 191.2325147375305 0.6826542552443541
2.0174280324019134 12.337998259285065 31.37411048669914 201.61400579233762 0.7011905585775244
2.0272832219209587 12.28366921406128 29.03602148289973 212.6742350257722 0.7206828948025225
2.0361125982431494 12.227260011401837 26.910346004317105 224.46750085005385 0.741197997456931
2.043878428474596 12.168725775143612 24.978531669561534 237.05585955398567 0.7628162633158021
2.050559438623214 12.108082813460616 23.221725992466457 250.50498293327203 0.7856167712073835
2.056148025376333 12.04536610877697 21.624080824650004 264.88863902263006 0.8096902862103665
2.060624522251603 11.980599957353572 20.170403987790596 280.2883155120853 0.8351361645778735
2.063960484025865 11.913778560124547 18.847611320442134 296.7930680245528 0.8620597288722456
2.066140408678222 11.844925504527192 17.642716504750485 314.5027374921393 0.8905803315744145
2.067159050525412 11.77409942811658 16.546300766745453 333.52729093459357 0.920826397197405
