M[M_sun], R[km], Lambda[1], P_c[MeV/fm^3], rho_c[fm^-3]
0.24162668629717493 15.618656898711224 2160425.4255784233 3.5677272577965504 0.1711233750220791
0.2536441043015373 15.277296706441602 1723116.0397371883 3.7848429286117806 0.1738884637581922
0.26604218143975 14.981224542691983 1382912.5417712114 4.0114505153329745 0.17666725363101277
0.2788191231176277 14.723441604989619 1116451.4239217595 4.247805385364205 0.17945840928303025
0.2919745285943349 14.498339366920995 905808.0876756025 4.494533034768447 0.1822685026233915
0.30551186252003937 14.301132043678654 738592.2343099402 4.751790121724764 0.18509326053090033
0.3194295263689949 14.128045242267566 605031.6154593201 5.020257261961918 0.18793926504050287
0.33372995315030196 13.975828551287904 497618.76808124944 5.300160765754736 0.1908031831933232
0.34841246757023475 13.84193065514981 410944.27626837057 5.592226727131896 0.19369126040398058
0.36347763076606027 13.723863536641112 340614.0346518083 5.896625635661525 0.19659861882070903
0.37893174961881076 13.61993489590897 283255.57963964576 6.2142203023209674 0.1995329122627806
0.39476583541313226 13.528378916344003 236372.4170443277 6.54526522033631 0.2024902668556991
0.4109934513694554 13.4477815117529 197822.42415801613 6.890468707324302 0.20547449350241373
0.4276035075368553 13.376975530366147 166044.24738380435 7.2505333888624515 0.2084886192898833
0.4446016010006241 13.314843179646076 139765.767979256 7.625714169443379 0.21152812533413431
0.4619825169195311 13.26051786948146 117947.94536917208 8.016968259651113 0.2145992997054834
0.479751484096213 13.213093189125273 98720.96948274318 8.42499713831653 0.2177037299890204
0.49791133136712307 13.171916140544067 84621.07468693577 8.850236297319176 0.22083880556936358
0.5164522507729873 13.13633581093053 71920.27840472086 9.29356987877261 0.22400808644516593
0.5353726773338866 13.105799895845909 61258.81983867716 9.755877974403628 0.2272144195124618
0.5546805965890652 13.079788789629932 52288.83331696405 10.237967844493628 0.23045912213284514
0.5743666638350384 13.057803514813349 44716.706876787626 10.740310691670075 0.23373889104588588
0.5944260444604704 13.039491821783649 38315.38513303912 11.264159270997133 0.23706001174331684
0.6148662892698702 13.024471000690747 32891.08441576774 11.8104467283375 0.24042403776738022
0.63567311679565 13.0124249336243 28282.52192811384 12.380152491998878 0.243832602827771
0.6568464555542762 13.003009199967694 24362.37661912852 12.973954936554103 0.24728353583781623
0.6783808627525585 12.995967998580774 21020.602687936316 13.593202383251715 0.2507818612313144
0.7002712629571685 12.991047427146869 18165.67405809477 14.23908288184953 0.2543301010409741
0.7225090148728215 12.987994964771453 15724.071590509262 14.912786672357884 0.2579302409428147
0.7451010398955482 12.98664199032552 13628.584154536473 15.61532831969251 0.26158202361955946
0.7680235790752777 12.98675866053654 11831.397986396954 16.348004677850703 0.2652876479902337
0.7912719021918143 12.988146372643536 10285.702922783865 17.112417938189484 0.2690516581792776
0.814848019504996 12.990672636142733 8952.304345001192 17.91002387362274 0.272876488197582
0.838734275687252 12.994142393202285 7804.379361606878 18.742165399517898 0.276763015489983
0.862916970139831 12.998421770072138 6810.930326199082 19.610232492440932 0.2807121246591375
0.8874030422785398 13.00338017667515 5952.7449847941125 20.516290229623415 0.2847299809007059
0.9121619011632399 13.008873560823071 5208.845052441406 21.462133698675554 0.28881959946925073
0.9371850269221949 13.014757285222553 4563.15292608591 22.449218389822395 0.2929806683113218
0.9624723471685825 13.02096442491643 4002.6951197821427 23.479628107147487 0.2972174515360672
0.9879957906232631 13.027354191035418 3514.9239727950394 24.555758593260606 0.3015358249048876
1.013740618879778 13.03381658452089 3090.698040975842 25.679518042524716 0.30593716268500254
1.039708128220841 13.040272611597835 2720.159224082586 26.85293748869869 0.31042323729543386
1.0658623235163112 13.046601609170894 2397.0259207752156 28.079081992031785 0.3150025364843244
1.0921975163083935 13.052729841044489 2114.713793139321 29.35996543137927 0.31967521850586283
1.118698529458824 13.058558561184386 1867.4648894724692 30.69842790391953 0.32444654161750547
1.1453321877655935 13.064019580252399 1651.2225566667075 32.09778418316274 0.3293239846631693
1.1720980348403036 13.06902391405715 1454.472210102223 33.56006691175582 0.3343058360690617
1.1989568779972806 13.073482009192569 1294.7080883291383 35.08977710254214 0.3394053784922415
1.2259061010345498 13.077344080656925 1148.4202736940847 36.68888576874421 0.34461904989879416
1.252904840266512 13.080510492067974 1019.6306901773501 38.362497423842456 0.34996160728913267
1.279948636929066 13.082944197552736 906.1798947861672 40.112911440472274 0.3554299635280167
1.3070020938987073 13.084552319719446 806.3229200643711 41.94548976867333 0.36103803478888674
1.33403537193368 13.085238094758312 718.139846601706 43.86383320699014 0.3667884026785523
1.3610449061551495 13.085029341206786 640.2542940370623 45.87251634132897 0.3726881805733451
1.3879838221512462 13.083781295833772 571.3877354418746 47.9769326619105 0.37874765160801177
1.4148311874965134 13.081456858316965 510.56105331591516 50.18190936876099 0.3849728167070682
1.441562401670123 13.078011243604807 456.6106801467373 52.49253786948967 0.39136997135875845
1.4681580845884534 13.073408215871199 408.7586837057348 54.9153027622388 0.3979511510508941
1.494568705413401 13.067534693369442 366.3066651392731 57.45639784606596 0.40472542339971224
1.520781373929968 13.06038034265429 328.65322559841314 60.12245538113852 0.4117025666503358
1.5467657155597359 13.051886589464342 295.10712745710987 62.92058556308983 0.4188931281972019
1.5724830312064413 13.04199874678136 265.2989567501018 65.85841977734768 0.42630848788367415
1.5978970803281582 13.030655088343433 238.7646854972135 68.94415801724918 0.4339609266402411
1.6230053521483714 13.017842754501908 215.09095627090647 72.1866208974744 0.44186370108922085
1.647747823589313 13.003479046006474 193.9649286821384 75.59530674843361 0.45003112481978436
1.6720969283809677 12.987536643576835 175.1323931836199 79.18004697900717 0.45847695611394584
1.6960322344589909 12.969974439902032 158.2596229166899 82.95126417902571 0.46721541768801933
1.7195124393888788 12.95075303544097 143.18930842143254 86.92159590195094 0.4762676107531315
1.7424943254245855 12.929804641705676 129.69692814538186 91.10250929457598 0.48564741508821685
1.7649754799307198 12.90714063224428 117.59948262597747 95.50834034360801 0.49537770951947707
1.7868864065281396 12.88266531164847 106.75854264222814 100.15252541431343 0.5054750774789833
1.8082373707922434 12.856423758858272 97.02493303874621 105.05172252985341 0.5159657138672357
1.8289419084640304 12.828269371596338 88.27466666069333 110.2224864366677 0.5268721757809441
1.8490225707323555 12.798292846367842 80.4157718846058 115.68261153251196 0.5382184027226553
1.8683939624054755 12.766341540869282 73.33507539950185 121.45203359732638 0.5500326803333135
1.8870701402584793 12.732509212820691 66.9633366086653 127.55219466205382 0.5623448576923009
1.902125008033683 12.699012500142091 61.93883521658952 134.45341748306555 1.1724223333155672
