M[M_sun], R[km], Lambda[1], P_c[MeV/fm^3], rho_c[fm^-3]
0.24162668629717493 15.618656898711224 2160425.4255784233 3.5677272577965504 0.1711233750220791
0.253644088243734 15.277281293810004 1723302.6581561393 3.7848211964939025 0.17388819287782675
0.26604013886247674 14.981273875425615 1383049.6798124753 4.0114048298199565 0.1766667015485497
0.27881479616253224 14.723548436249969 1116421.56070836 4.247734200572343 0.17945758364671785
0.29196966614337827 14.498402535039252 905871.4576988751 4.494434482473765 0.18226740522071744
0.30550475722347525 14.301249773038402 738700.3452447783 4.751660855296664 0.18509186420676815
0.3194219723907637 14.128127005388183 605102.986343876 5.020096328898682 0.18793759529785736
0.33371959639544146 13.97594163582755 497690.7974561254 5.299963928754172 0.19080120137133919
0.34840076734913666 13.842028556999134 411006.65043550933 5.591993494440744 0.19368900381353357
0.3634641165361763 13.723973570794941 340650.0211601582 5.896350766942839 0.1965960371955347
0.37891660432640184 13.620002806382589 283308.7161640299 6.2139004708510255 0.1995299957848769
0.3947486939834194 13.528468441875734 236415.5150390812 6.544900757883525 0.20248707101235283
0.410974230565626 13.44786631110828 197861.80283246638 6.890052577394208 0.20547094956530693
0.4275820039873353 13.377067032869952 166077.30168490886 7.250061686043546 0.20848471701334956
0.4445771782133738 13.314930283247886 139804.52438717676 7.625188197198013 0.21152393825686217
0.4619584650580326 13.260568964406465 117979.97461353103 8.016378843025256 0.2145947400913595
0.4797232593614929 13.213156618561545 99813.61093394372 8.424339680534638 0.2176987868256097
0.49788077364804056 13.171981391365403 84645.26403587458 8.849513222303349 0.2208335701973028
0.5164185840127721 13.136407916550004 71939.58056191173 9.292769483944967 0.22400245161568053
0.5353377383517743 13.105836251160733 61276.63263612566 9.754994832169723 0.22720837305325406
0.5546445041969102 13.079816597254474 52299.6388897317 10.236998848997226 0.23045268543642938
0.5743268370334323 13.057864568350398 44730.88415438568 10.739254761455372 0.23373211164682123
0.5943828075828186 13.03952242490684 38328.897830622795 11.263003176586563 0.23705278844451858
0.6148195913753087 13.024504043444677 32902.330897787375 11.809183639168126 0.24041635607781267
0.635623638812268 13.012461781757812 28292.93866497965 12.37877515132756 0.24382444749145335
0.6567935958144717 13.003025480686867 24370.466487452522 12.972469669407115 0.24727504665986652
0.6783266809402907 12.995978190649968 21028.218180484502 13.591588096540885 0.2507728733154018
0.7002134597390179 12.99106608085795 18172.538630522202 14.237330918855251 0.2543205965562256
0.7224477497354744 12.987999614012386 15730.072441108465 14.910887820100797 0.2579202009951537
0.7450359711311851 12.986640938387774 13634.271545638443 15.613291301856256 0.26157161173558785
0.7679558783589222 12.986749809223305 11836.512309103467 16.345801906226555 0.26527666772616154
0.7912001306447187 12.988146680996952 10289.035979258744 17.110038355983978 0.2690400870768064
0.8147751653348743 12.990656045609906 8956.518893810358 17.907455690926614 0.2728643023543227
0.8386555355490959 12.994138259637962 7807.579266902195 18.73942000782436 0.276750401835655
0.8628380797267189 12.998399968059912 6814.805834215365 19.60727419123571 0.2806988526273326
0.8873175182007118 13.003352194459838 5955.447231838289 20.513104778655954 0.28471602176065447
0.9120735048799579 13.00884920504839 5180.49849549108 21.458705882471783 0.2888049225529171
0.9370933368178075 13.014743450026353 4565.275696782267 22.44556248835799 0.2929654837779933
0.9623771277731985 13.020957501427045 4004.6300619947597 23.475698236353317 0.2972014911630937
0.9878971138687244 13.027332417117917 3516.554160631854 24.55153625294007 0.3015190515512332
1.013638795554112 13.03378764424412 3091.856805186529 25.675019578035922 0.3059198022441849
1.0396029759649505 13.040239635370124 2721.5138037514575 26.848107899015186 0.3104049919752716
1.065753490578293 13.046575145772447 2398.3361446197478 28.073898666729068 0.3149833611101471
1.0920852573858602 13.052700072929902 2115.8300152843544 29.35444674265366 0.31965535461494277
1.1185836135516878 13.058539005335861 1868.6447211991074 30.69250795626718 0.32442565861855877
1.1452145622300416 13.063992765453888 1652.1421888544608 32.09148229983059 0.3293023320127506
1.1719768790365515 13.069007668630212 1462.0889749453636 33.55330916325401 0.3342830617598576
1.198833568183487 13.073459831386893 1295.4592991199786 35.082531589097385 0.33938141954354284
1.2257785957444378 13.077327540995922 1149.0618671145937 36.681173518372674 0.3445941713729263
1.2527730531304677 13.080499226791918 1020.1981548801369 38.35428713431631 0.3499357538745069
1.2798160081737642 13.082932202201794 906.7139443188821 40.10410978101397 0.3554027341340971
1.3068600461084496 13.084517273682424 806.7543261416239 41.936117794823446 0.3610097018920907
1.3338970304536477 13.08523315972624 718.6199231411266 43.85378582924056 0.3667585366757594
1.3609039121041224 13.085036773337727 640.6293757532867 45.86181461467114 0.3726570614059438
1.3878355265047062 13.083776077493335 571.8225762817056 47.965530870041206 0.37871519842777324
1.414692190084683 13.081483836240134 510.85128817618244 50.16968246976631 0.384938555588653
1.4414152992077522 13.078033472567865 456.8774073988274 52.47950527560023 0.391334188738829
1.4680085297382104 13.07343889142049 409.0180277741842 54.90140675856705 0.39791374550815156
1.494418394080772 13.06757180082765 366.53386455709665 57.441576042348515 0.4046862856718023
1.5206303029701873 13.060426113702347 328.8444684297216 60.106640293097094 0.4116615789898575
1.5466138175226694 13.051940558698542 295.2933399693172 62.9037041520164 0.4188501636638884
1.5723298924057623 13.04206031059757 265.4684489760803 65.84039294326008 0.42626340956589526
1.5977541031320002 13.030734494682124 238.9213133025794 68.92490004039921 0.43391358679817543
1.6228423971816388 13.017913949541278 215.239287854599 72.16603882234683 0.44181394021112663
1.6475930753661137 13.003577281994758 194.1058108939469 75.57329970365102 0.44997877058177643
1.671942093883173 12.987642998908843 175.2397087254936 79.15662035839054 0.45842230207606516
1.6958785813679556 12.97009725919898 158.36422531981273 82.92618938322013 0.4671577958802877
1.7193592879256194 12.950885436299298 143.28013400790172 86.89474383222802 0.47620680402667875
1.7423452286021177 12.929944989402882 129.7819435710889 91.07386877472479 0.4855837004737444
1.764825386101273 12.907300730784643 117.68051177612698 95.47763542370565 0.4953103360691358
1.7867513687989354 12.882865449787808 106.82157903896224 100.11972935730364 0.5054043050107729
1.8080904867309306 12.856613279620388 97.08509312662314 105.01666524558767 0.5158912696506145
1.8288008363309318 12.828479925780199 88.33225058976284 110.18498239644391 0.526793764809202
1.8488811561923422 12.798516791980223 80.46479744756044 115.64230494373366 0.5381351432189738
1.8682570114314596 12.766580997224644 73.38874330136207 121.40885111605859 0.5499447766260662
1.88693816008712 12.73276156005883 67.01055165216087 127.50603567622743 0.5622524390462358
1.9048603378234075 12.696950988594338 61.25725605980067 133.9563005227528 0.5750874377658032
1.9220035466756344 12.659135217929409 56.076040405477954 140.78530974949692 0.5884860083420936
1.938317427018729 12.619252212561936 51.39319672523953 148.02075173003792 0.6024864622034224
1.9538144282182672 12.577410664954066 47.163028948499054 155.6911438228585 0.6171246339566522
1.9684326767993578 12.533482432739918 43.34173751725448 163.83010687739574 0.6324480413429988
1.9821487705526903 12.487488033838119 39.87999153270693 172.4713958352012 0.6484981926750365
1.9949386632185866 12.439415603798032 36.744902310506745 181.6543267101538 0.665328353849129
2.006776159487568 12.389258319117166 33.90362229647365 191.4208824138075 0.6829928860751279
2.0176271285689347 12.336987790757055 31.32948202141004 201.8170910572616 0.701551014890055
2.0274614639327786 12.282606539084105 28.99182770139625 212.89290905775493 0.7210654519386245
2.0362733300054057 12.226145334399288 26.869852395736093 224.7037868423171 0.7416064234197297
2.0440195425559198 12.167555189437229 24.942660495548942 237.310908251033 0.7632511447734401
2.05068008065498 12.106853693043492 23.188254876898903 250.78111591291213 0.7860821530275538
2.0562543796836765 12.044111239133185 21.593898746047444 265.1875075963498 0.8101876208809343
2.0607034795644874 11.97926631743676 20.142641641696667 280.6118080758477 0.8356672114358933
2.0640109578853183 11.912373824552361 18.821821309245188 297.1437315438028 0.8626278666057109
2.0661732894668834 11.843478116733177 17.619544194902122 314.88365967063515 0.8911901130605601
2.0671682231164463 11.772592231336393 16.52415367877651 333.94098317400244 0.9214797910440484
