M[M_sun], R[km], Lambda[1], P_c[MeV/fm^3], rho_c[fm^-3]
0.24162668629717493 15.618656898711224 2160425.4255784233 3.5677272577965504 0.1711233750220791
0.253637386262966 15.277452802521966 1723534.4767571962 3.7847071325995545 0.17388677112640996
0.2660261792592727 14.981579675107465 1383302.520425652 4.011165049467169 0.17666380394449493
0.27879509235776295 14.72390385937629 1094418.2385818707 4.247360596474881 0.17945325040219665
0.2919427847949552 14.49884081262044 906299.2192873084 4.4939172559996745 0.18226164578388643
0.3054706474501267 14.301664871383704 739034.6021827391 4.750982450043574 0.1850845361352789
0.3193777373483841 14.128650154362173 605424.782694033 5.019251752862597 0.18792883249550657
0.33366723815888844 13.976497209136083 498058.28570957365 5.298930953473114 0.19079080102427487
0.3483396134070496 13.842535258425917 411303.201281586 5.590769546282719 0.19367716177840816
0.36339245421859934 13.724510465183666 340939.14015323966 5.89490835647159 0.19658248977114215
0.3788369825415525 13.620486403939122 283566.33517402626 6.212222150866213 0.19951469152744422
0.39465832840443443 13.528930426788333 236650.91741795265 6.542988276334708 0.20247030113280573
0.4108725685618765 13.448332484656415 198075.329469624 6.887869024919677 0.20545235351614158
0.4274695540281894 13.377493738893325 166272.6593915978 7.247586582172211 0.20846424111333678
0.4444528300284767 13.315348752059109 139973.40673521755 7.622428387851839 0.21150196839991503
0.46182184288133543 13.260988269647216 118136.59378430666 8.013286205127429 0.21457081603692946
0.4795747137383171 13.213553052215163 99958.70280923438 8.420890109886887 0.21767285087674995
0.49771889687566556 13.172327471945131 84765.04180995392 8.845719442101528 0.22080610160768405
0.5162442680815539 13.13671798402395 72049.93681171427 9.28857011828944 0.22397288781966568
0.5351486417235453 13.106126236807892 61373.31185172318 9.7503614223913 0.22717665027730427
0.5544425206362451 13.08007837464879 52388.46543866302 10.231901207786228 0.23041873713456043
0.5741088884495417 13.058046998558309 44804.65846007639 10.73371504009025 0.23369654491966624
0.5941562279083757 13.03972063635194 38395.063471644615 11.256938093520926 0.23701489369576892
0.6145755539579784 13.024658474107127 32961.407807035204 11.80255738299996 0.24037605738464593
0.6353614274475272 13.012559092096811 28348.12425095729 12.37154967724774 0.24378166492327513
0.6565138746613609 13.003106181226837 24420.506097110167 12.964678156731798 0.24723051356847453
0.6780345768542629 12.996078025741841 21070.427008555784 13.583119943747448 0.2507257249094018
0.6999060929862032 12.991117373934413 18209.481567405015 14.228140744689009 0.2542707394128471
0.7221242791712378 12.988024187555963 15762.750892316697 14.900927328459836 0.25786753612121227
0.7446944867695318 12.98666211795958 13662.638944145361 15.602606245701441 0.2615169968162023
0.7675983011569927 12.986742618385303 11861.629383572536 16.33424764357111 0.26521907262473327
0.7908259284046799 12.988115530943485 10312.108049949395 17.097556929228993 0.2689793941250626
0.8143830576027788 12.990620187085165 8977.428613696084 17.893985301239415 0.27280038631843595
0.8382482457209227 12.994069027072014 7825.252661823965 18.72502038956954 0.2766842430403367
0.8624117674572978 12.998322246104793 6830.7744346774025 19.5917581926748 0.280629242127218
0.8868685848490001 13.003254178524749 5969.991600698264 20.496397762525852 0.28464280902550854
0.9116113519197907 13.008747311811316 5224.041201457818 21.440728102247483 0.28872794690412795
0.9366140799953321 13.014627272456694 4577.1264141116635 22.42638881279281 0.2928858472455309
0.9618741515433669 13.020815088808758 4014.7157542671807 23.455088158142782 0.2971177875116298
0.9873816393568268 13.027205727093442 3525.76554454491 24.52939281727367 0.3014310861933131
1.0131077552035574 13.033656292147542 3099.9846994335835 25.651428472303515 0.3058287596237731
1.0390506598927098 13.040109154343664 2728.818855311693 26.822780855205366 0.31030931096438735
1.0651885559520136 13.046446605306507 2404.730167512029 28.04671719886038 0.31488280504109273
1.0914996121599525 13.052573488576199 2121.5769696777907 29.325507152357126 0.31955118985887426
1.117980865361548 13.058409844772296 1873.8384908736182 30.661464909333283 0.32431615225896016
1.1445943508423495 13.063868097778396 1656.8462747848184 32.058295816699484 0.3291878779967267
1.1713416636249916 13.068890924133196 1466.325144061591 33.51787434900362 0.3341636427823515
1.198186054034984 13.073368759458539 1299.225942709107 35.044540043385936 0.3392557918014064
1.2251109996067053 13.077247770396351 1152.452661395253 36.640735442931714 0.3444637244012333
1.2520920045499975 13.08042867323415 1023.2118998089455 38.3109452886216 0.3497984773526901
1.279118869551462 13.082885918690957 909.5286777250002 40.05796159459848 0.35525996706244056
1.3061481983789693 13.084490791265036 809.3047162506841 41.886980378735714 0.36086115203897157
1.333171021175831 13.085226473599345 720.8316589236467 43.80110859608862 0.36660195269617296
1.360166765529215 13.08504979291177 642.6939282064839 45.805707886317194 0.37249391066141346
1.387087980923458 13.08382960664092 573.5796895156253 47.905755138789644 0.3785450574006054
1.413922838269771 13.081546405482957 512.4976302977188 50.10558268306542 0.38475894092237456
1.440651753035912 13.07816754129937 458.34411341036383 52.411183135676694 0.39114660174069266
1.4672252801041308 13.073578352273245 410.37164974621516 54.82855992830085 0.39771765494229167
1.493632756531961 13.067762728831914 367.746514828596 57.36387770404773 0.4044811192506679
1.5198355460327202 13.060668425051032 329.9306809643972 60.02373695759733 0.41144672000462246
1.5458139270270592 13.052222835372339 296.2830714979139 62.815213249257766 0.41862494728102895
1.571525730913975 13.042393120388907 266.35760519234833 65.74590017002149 0.42602711875414423
1.5969403702032867 13.031112144368727 239.71956650664438 68.82395643790406 0.43366544784583927
1.6220325446266377 13.018349766738448 215.95953895191676 72.0581575531042 0.44155311778898676
1.6467821331680705 13.004073155659585 194.76318594089614 75.4579524930998 0.44970436230140964
1.671137121170454 12.988206208490896 175.8335237293401 79.0335259895012 0.4581345536513548
1.6950669416821944 12.97072016420177 158.9113593861012 82.7947695690879 0.4668557935301685
1.7185567212068085 12.951579378589456 143.7753472339021 86.75401314296181 0.4758881182563073
1.741556394497312 12.930734324019161 130.23779539265806 90.92376861369371 0.4852497828653334
1.7640391211537296 12.908149930530236 118.0926986131779 95.31672091862262 0.49495725371452065
1.785971319935766 12.883783180827267 107.20200467874908 99.9478604290788 0.5050334193199861
1.8073067213186274 12.857580770825269 97.42736758086326 104.8329512954839 0.5155011526924895
1.8280526222745233 12.829582638326627 88.64213447286157 109.98777230138161 0.526380341421375
1.8481372067647501 12.799679922295732 80.74568710188127 115.43109557414331 0.5376988575441504
1.86754054228314 12.767864414160215 73.6432701614889 121.18257866968199 0.5494841688448444
1.8862288238307476 12.734112141355757 67.2429083831108 127.26343074486704 0.5617655328847742
1.9041615601203592 12.698355983583594 61.47449956038824 133.6967688995288 0.5745748921314757
1.921326948067835 12.660646470634347 56.27325957324392 140.5066642396375 0.5879431009253554
1.9376759932466026 12.620889657274043 51.57182151376564 147.72122888459452 0.6019103151080212
1.9531933433820148 12.579132174176637 47.33001028836206 155.36989798821247 0.6165158409428366
1.9678527456568435 12.535353385735073 43.49164745072499 163.4843366609402 0.6318008400030934
1.981596974598084 12.489458249377742 40.018256914356805 172.09964069817175 0.6478117874613775
1.9944312127060546 12.441530885285626 36.87224046154347 181.25438375007914 0.6645998522018298
2.006285471312363 12.391435350568393 34.02318090038746 190.9901566629334 0.682218565227003
2.017170542503828 12.339280934693875 31.435888755411963 201.35272010403335 0.7007268022544922
2.027048622821864 12.285026523820305 29.09101959482066 212.3924672419669 0.7201892950068421
2.0359053444737554 12.228693882324915 26.96175317868576 224.1635194714551 0.7406725584072528
2.0436944715071195 12.170229404338848 25.024425493411716 236.7275199754354 0.7622560552672594
2.050402159978324 12.109656792344452 23.26550205132523 250.14966844319648 0.7850177912920131
2.056017394475964 12.047014525125034 21.663141514157623 264.5041860876553 0.8090505341903238
2.0605144466361924 11.98230367255892 20.207729232471504 279.8718045105803 0.8344517719092424
2.0638809144007944 11.91555847214816 18.881101717174722 296.34202142952995 0.8613289525692768
2.0660970194825934 11.846790319918421 17.673583853123578 314.0127900370004 0.8897960220639848
2.0671473471567374 11.776034184034254 16.574294662638973 332.9952153858794 0.919986026370106
