M[M_sun], R[km], Lambda[1], P_c[MeV/fm^3], rho_c[fm^-3]
0.24162668629717493 15.618656898711224 2160425.4255784233 3.5677272577965504 0.1711233750220791
0.25364459946024254 15.277261454853235 1723117.4326137467 3.784833028297665 0.1738883403555528
0.2660404405699497 14.981260526607992 1382879.3472505126 4.011429702730388 0.17666700212299327
0.2788166199535259 14.723489251849362 1116372.1747922094 4.247772956179138 0.1794580331533532
0.2919721752945023 14.498388600330719 905865.1552493718 4.494488137857292 0.18226800268586577
0.3055087111858004 14.301179140717977 738618.075016278 4.7517312324250085 0.18509262441407107
0.319427576144663 14.128057566614777 605097.8425010693 5.020183946295115 0.18793850436216256
0.33372629162562467 13.975904431212902 497663.2727647779 5.3000710932819715 0.19080228034031602
0.34840713204142254 13.841975913259835 410974.7166073867 5.592120473773382 0.19369023237350766
0.3634703750259788 13.724017618383405 340644.3457337602 5.896500414007298 0.1965974427124328
0.3789253859207927 13.61995066504123 283279.1152505955 6.214074596741589 0.19953158360333761
0.3947585337551624 13.528428575360115 236384.61187262007 6.545099181922585 0.20248881092311763
0.4109846448149546 13.44783016198039 197837.28423361573 6.890279130349898 0.20547287898534683
0.42759295942039094 13.377024442981364 166061.02966686033 7.250318494039462 0.20848684152008554
0.4445900438527551 13.314902118473304 139789.108068471 7.625474550544707 0.21152621781362643
0.4619727243854664 13.26052885718053 117964.87977772813 8.016699736673015 0.2145972224631563
0.47973828190155854 13.21312047535129 99804.95212466443 8.42469761697462 0.21770147800725242
0.49789656529355214 13.17195818400419 84629.73013967003 8.849906881851817 0.22083642046063148
0.5164363841009947 13.136376456455165 71929.00024049434 9.293205237584207 0.22400551934846685
0.5353565560720133 13.105813337003275 61265.977267119466 9.755475634673912 0.22721166488170133
0.5546644870112386 13.079800892995006 52296.30534883349 10.237527834696134 0.23045620827482613
0.5743486537949557 13.057817748490521 44320.72954834272 10.739829631949279 0.2337358024934647
0.594407514233739 13.039518285275099 37988.029415321675 11.263632577585794 0.2370567209533516
0.6148456904037971 13.024488354718297 32895.5685405522 11.809871289194273 0.2404205381372904
0.6356510199665709 13.012431091641643 28286.42911850417 12.379525000905016 0.24382888740644254
0.656822832879417 13.003003744114578 24366.271642692227 12.973278275086738 0.24727966831834688
0.6783559721722153 12.995968794727316 21024.238954568358 13.592466941394234 0.25077776648808864
0.7002453639549288 12.991061845480472 18168.9450318753 14.238284715520718 0.2543257709496858
0.7224807089949896 12.987999200301257 15725.691299345408 14.91192158403009 0.2579256668947282
0.7450706695486022 12.98663922259972 13631.176194716389 15.614400283799869 0.2615772801156668
0.7679927279381206 12.986761451960845 11833.684402209714 16.34700112507162 0.2652826455313297
0.7912400770854433 12.988137781753858 10286.595686528208 17.111333830904584 0.26904638653266066
0.8148143023245165 12.990666877336873 8954.278406153335 17.90885384018327 0.2728709364725731
0.8386997688379823 12.994135645937021 7756.416287194572 18.740914629867646 0.2767572688506057
0.8628815805254731 12.998412380424543 6812.697468096938 19.608884721084497 0.28070607805905606
0.8873648472119658 13.003363349323829 5917.964089015956 20.51483896846066 0.2847236212492691
0.9121222383079354 13.00885145526075 5209.854922233682 21.460572015261626 0.2888129127931155
0.9371436101320549 13.014749355302941 4564.2443369010825 22.447552790180346 0.29297375035865736
0.9624287162419096 13.020967952043717 4003.5391165892293 23.477837685834565 0.29721018010312944
0.9879506531948483 13.027343942619352 3515.614696067151 24.55383492119664 0.3015281830689875
1.013694575133721 13.03380087074869 3091.2271257823922 25.67746856680637 0.3059292533634987
1.0396596695900135 13.040259425106587 2720.7200986035364 26.85073714986144 0.3104149248115207
1.0658131383394782 13.046588155120963 2397.485275263631 28.07672048821703 0.3149938002548531
1.0921475709467918 13.052710222303958 2115.127701219069 29.35745113321362 0.31966616857625346
1.1186466305975338 13.058548494991712 1867.887864374158 30.69573078796511 0.3244370273662075
1.1452784975367152 13.064004002574507 1651.6524673912363 32.094913053416214 0.3293141197441552
1.172042826367089 13.069018669918707 1461.6547078007668 33.556988084127894 0.3342954601025152
1.1989004943590866 13.073479358548155 1295.0369532037525 35.0864760425433 0.33939446278174473
1.2258474332753246 13.077337793277035 1148.7172606388708 36.68537205718785 0.3446077152092242
1.2528450611814723 13.080498244077653 1019.8615249427628 38.35875679855539 0.34994982841870453
1.2798885494176464 13.082943930114613 906.4308575221737 40.108901377164244 0.3554175577318172
1.306933613458175 13.084523178755582 806.5638521438857 41.94121986079485 0.3610251262104819
1.333971593120328 13.085237420749898 718.3866968444905 43.85925557233094 0.3667747955809668
1.3609807481123306 13.085034580436849 640.4085195624817 45.867640573153814 0.37267400250181476
1.387913721842122 13.083769427679776 571.6308109424145 47.971737930301735 0.37873286572495735
1.4147633479972512 13.081464121407043 510.66901240953064 50.17633870001074 0.3849572070793296
1.4414952537975423 13.078023933132707 456.7408649994673 52.48660010846439 0.3913536684916698
1.468090473675811 13.073420715715828 408.88543291699375 54.90897161181756 0.3979341087325928
1.4944995885845074 13.06755180897015 366.416743584942 57.44964487876189 0.4047075918454716
1.5207130251267205 13.060402864299292 328.7339857633974 60.11524984833494 0.4116838922091095
1.546696782876596 13.051910688049995 295.1935437029358 62.91289418523865 0.418873553029079
1.572412975282614 13.0420270690434 265.38027155754014 65.85020651301039 0.4262879496051279
1.5978269731921215 13.030688481768477 238.83289299315183 68.93538380860232 0.4339393579336823
1.6229245093275357 13.017865868944014 215.15937869800945 72.17724338960677 0.44184102927294694
1.64767731666874 13.003523205882084 194.03813331321524 75.58527997943649 0.45000727137395774
1.6720257102268925 12.987588078700403 175.17197760965476 79.16937340701413 0.45845205479259965
1.6959626818692841 12.970028704266134 158.31517512761658 82.93983964227998 0.46718916413585126
1.7194429960135251 12.95081323399166 143.23233325647354 86.9093615761787 0.4762399060246602
1.7424197658940355 12.929836216509774 129.74123305080838 91.08946008784731 0.48561838540648594
1.764906705675661 12.907214083027293 117.6403396092177 95.49435051737377 0.49534701271694276
1.7868333498608178 12.882772800795953 106.79158867569845 100.1375827862785 0.5054428319359516
1.8081711417090656 12.856508564871783 97.0525464867919 105.03574959728613 0.5159317953114485
1.8288793795937248 12.828368387098044 88.29977281734229 110.20539866181826 0.5268364497892147
1.8489580987311254 12.798394038289686 80.43781993030875 115.66424679340676 0.5381804675088482
1.8683326806923177 12.766450902249211 73.36289267187983 121.43235847459428 0.549992628993559
1.8870114688709336 12.732623826679399 66.98687256181037 127.53117348878982 0.5623027854783381
1.9049325156273174 12.696800674422219 61.23595021418803 133.9832546537655 0.5751406535896056
1.9220718211331005 12.65897623566024 56.05540286073824 140.8142606029623 0.5885424156140973
1.938384292528235 12.619081844403071 51.37078331350966 148.05187269501678 0.6025463249279238
1.9538791401140925 12.577230372787598 47.14823329618529 155.72452282244723 0.6171878905021578
1.9684931462948907 12.533291952532508 43.32579087512345 163.86594620683883 0.6325149895082441
1.9822059113681325 12.48728403402004 39.86349140757295 172.51002552272018 0.6485695181693577
1.9949921903701169 12.439195809127341 36.73399228770989 181.6958868035228 0.6654040561354639
2.0068253073793696 12.38903172007095 33.89106850071145 191.4656428264325 0.6830733524057242
2.0176711208145175 12.336748053810387 31.317506374403617 201.86534953687612 0.7016366689310644
2.027504518497012 12.282358106151333 28.982549836179956 212.9448727004844 0.7211563592226937
2.0363112312424962 12.225880074539782 26.860218087141206 224.75993667311562 0.7417034797390029
2.0440530647362967 12.167278943501676 24.934430630125952 237.37151784375968 0.7633544896967311
2.050709705870222 12.106561992415507 23.181021772023264 250.84662320402288 0.7861923768473892
2.056279681101236 12.043805705515396 21.587424965178496 265.2585333165629 0.8103058118058762
2.060721949221409 11.97894878072143 20.135670632537806 280.68862221541764 0.8357932045031223
2.0640246940071463 11.91204486437648 18.81478056643014 297.2270695964653 0.8627628891836294
2.0661807763929305 11.843134250206427 17.613466364751208 314.97419092253085 0.8913350357887183
2.0671694230134112 11.772232493528882 16.518080681360384 334.0393047899523 0.9216350821825661
