M[M_sun], R[km], Lambda[1], P_c[MeV/fm^3], rho_c[fm^-3]
0.24162668629717493 15.618656898711224 2160425.4255784233 3.5677272577965504 0.1711233750220791
0.25364020776587753 15.277383596077648 1723219.9779656902 3.784767495895159 0.17388752352576944
0.26603361880537846 14.981391800047057 1383165.3026867097 4.011291941387781 0.17666533735846904
0.27880539612231875 14.723719251430813 1116637.9707883745 4.247558306087022 0.17945554353575546
0.29195702839111143 14.498629923423392 906119.0173749235 4.494190967335567 0.1822646936231367
0.3054886035276532 14.301448740761264 738826.5995033236 4.751341452208515 0.1850884140438262
0.3194008215190538 14.128374514107472 605209.4613457879 5.019698686121801 0.1879334696005712
0.3336958709842721 13.976220859908931 497836.7840814718 5.299477578838822 0.19079630463469205
0.34837181011998103 13.842275276934208 411157.1819733047 5.591417224188069 0.19368342824031246
0.36342924611748173 13.724249791656304 340784.7023264488 5.895671631317571 0.19658965861002176
0.37887783396115765 13.62027321198102 283424.18350010394 6.213110252980825 0.19952278994938494
0.3947062939143725 13.528693682228976 236520.47832881953 6.544000279307736 0.20247917503173013
0.41092602318409516 13.448090047376365 197971.5443621752 6.8890244566755525 0.20546219365783272
0.42752937447387307 13.377258667252844 166168.62099269193 7.248896277416996 0.20847507588645076
0.44451886213918396 13.315116513439547 139881.97374138056 7.623888722735691 0.21151359360458272
0.4618947012062842 13.2607481493025 118048.16868058473 8.014922639790752 0.21458347518205087
0.4796542043464791 13.213316940867086 99872.10319057191 8.422715395690428 0.21768657447428982
0.49780372033846604 13.172152783042872 84703.82617963916 8.847726845661844 0.2208206360671583
0.5163366339993452 13.136543936875677 71989.63638807726 9.290792110344626 0.22398853078225925
0.5352489415984414 13.105968659252241 61320.47005574944 9.752813057418967 0.2271934354684297
0.5545493640890802 13.079935211478633 52342.09761748205 10.234598454539123 0.23043669974573533
0.5742236440444975 13.057951477962314 44363.17296299592 10.736646177407458 0.2337153637291954
0.5942745771569548 13.039605557557064 38357.81713253085 11.26014717938028 0.23703494412229073
0.6147027265170404 13.0246083509587 32930.760937910854 11.806063360702565 0.24039737957867238
0.6354993978975931 13.012486562834294 28318.978100972836 12.375372671304296 0.2438043011547615
0.6566630322205043 13.003074747748508 24393.178819483674 12.968800612304241 0.24725407583403416
0.6781880091639207 12.996035613415593 21047.10745275094 13.58760036915906 0.2507506707177159
0.7000687462609134 12.991089650715075 18190.188407718644 14.233003144532747 0.2542971181693089
0.7222925437224227 12.988034035963526 15744.923622481885 14.906197248888631 0.25789540017703083
0.7448753112393584 12.986648515565983 13648.195616283956 15.608259481181834 0.26154589240603876
0.7677869319654168 12.98675371164057 11847.65116284814 16.340360706378185 0.2652495447096175
0.7910238127305381 12.988124866738143 10299.998085363395 17.104160475090307 0.2690115049324379
0.814590971719799 12.990643469257622 8967.02097136135 17.901112017301614 0.2728342020765665
0.8384631756350258 12.994104639503995 7815.651279166106 18.732638675638693 0.2767192451230174
0.8626370653762404 12.998358911308964 6822.144529293029 19.59996704306017 0.28066607006184613
0.8871038201398692 13.00331419103951 5962.274686408153 20.505236653840768 0.2846815424177423
0.9118556234928227 13.008800866538001 5217.160767275382 21.450239213006494 0.28876867072610407
0.9368672542966494 13.014679016687351 4570.681275760898 22.43653253907188 0.2929279785095323
0.9621369907596494 13.020878597379868 4009.180122816423 23.46599171064155 0.2971620700780884
0.9876539131814498 13.027271785756419 3520.9095505834593 24.541107474539057 0.3014776229654195
1.0133936992148624 13.033734976803682 3095.9984402867167 25.66390890968344 0.30587692403521877
1.0393431221803393 13.040184232475957 2724.918420274923 26.836179539651646 0.3103599287815304
1.0654893154868303 13.046521191788974 2401.4492576133794 28.06109679458197 0.31493600141839434
1.0918106878634484 13.052636705528252 2118.6302069228796 29.340816722577877 0.31960629491154496
1.1183005702646798 13.058473923285709 1871.103099282649 30.677887096749103 0.32437408258920064
1.1449241655954598 13.06394701288292 1654.2147546883996 32.07590760136249 0.32924878639924426
1.171678156830186 13.068956751831653 1464.159601193985 33.53661952694973 0.33422681596473863
1.1985254418844975 13.073414390299755 1297.23289130851 35.06463755461544 0.33932224882259476
1.225464658648206 13.07729383699221 1150.6369121820585 36.662127002875806 0.3445327302622706
1.2524525413749312 13.080459111926167 1021.6326074155938 38.333876814577344 0.34987111939982757
1.2794879030123947 13.08290919002562 904.1494593403672 40.08237334874615 0.35533548887433336
1.3065244000194962 13.084504475227181 807.9941074349939 41.91297318506062 0.36093973223038467
1.333554803283274 13.085229902949083 719.6330561181276 43.828973621949295 0.3666847819637611
1.3605564329570332 13.085041444387219 641.5684240688906 45.835386788057754 0.37258021287610094
1.387483041917339 13.083796886424144 572.6705615665968 47.93737457322786 0.37863505651799206
1.4143328085647953 13.081522072245814 511.59614199794777 50.1394890472703 0.3848539502914352
1.4410598359357387 13.078106480742598 457.56214734348725 52.44732264700926 0.39124582729850715
1.4676423161466163 13.07350761699234 409.6333575021201 54.86709246260741 0.39782137759471975
1.4940483213803994 13.067662301819691 367.1157534418026 57.40497608015515 0.4045896416068057
1.5202566093166956 13.060538143267845 329.35230295023325 60.0675880954171 0.4115603681578187
1.5462370358962791 13.05207406804871 295.7596455968578 62.862019443376994 0.4187440727663198
1.5719511381750566 13.042218207271173 265.8875520652082 65.79588049163107 0.42615210070101633
1.5973671553945443 13.030906826154498 239.28939360736035 68.87734827948196 0.4337966953474635
1.6224598471399747 13.018119615724405 215.58598173846966 72.11521833203963 0.44169107251157774
1.6472111747456066 13.003811363866832 194.4139100656243 75.5189615324516 0.4498495013602161
1.6715605334278203 12.987910125664332 175.51738565454863 79.09877780286993 0.4582873560557974
1.695499691719772 12.970394080223008 158.6344284886638 82.86427828448673 0.46701552435571275
1.7189721622286782 12.9512061503322 143.51581044877682 86.82844559449295 0.4760566711375624
1.7419781007962936 12.930330075159043 129.9968834080346 91.00315579785058 0.48542639012871036
1.7644572243606216 12.907703534660625 117.87448021487921 95.4018267413386 0.4951439948927663
1.786384686846489 12.883300966580148 106.99926520019393 100.0387589679863 0.505229574423427
1.807726838109226 12.857079628962465 97.24189782137988 104.93011341296418 0.5157074766526187
1.8284538413158575 12.829014310767295 88.48088516018386 110.09212213635499 0.5265991795576205
1.8485318326894578 12.799061433453915 80.6002794033779 115.54279667092518 0.5379295934650166
1.8679254379268133 12.76720228002304 73.50384690373083 121.30224466624142 0.549727764961144
1.8866044269362947 12.733401199122754 67.1175645042875 127.39173273031751 0.5620230339458337
1.9045372142365407 12.697627088193764 61.36070114940929 133.8340663653202 0.5748461095856623
1.9216904459821669 12.659864222400138 56.16755997107178 140.65402276678358 0.5882302113738518
1.9380224682050704 12.620052059019866 51.47706695488489 147.87962600871379 0.6022149998570129
1.9535195864265322 12.578207250535037 47.243249196853604 155.5397807912754 0.6168377858601491
1.9681567592755629 12.534357095427135 43.410906421537504 163.6672665724029 0.6321433641943759
1.9818899865115214 12.488414998876484 39.9458532544748 172.2962285887716 0.6481747655068948
1.9946922350138472 12.440392434319618 36.80499644236844 181.46587468634496 0.6649850858747259
2.0065424666935487 12.390276941914182 33.961153444404104 191.21792231214926 0.6826280222662364
2.0174141846284517 12.33807497563236 31.37939644281934 201.5982734653287 0.7011626352489497
2.02726909244609 12.283750937699395 29.03971977823802 212.6572953328543 0.7206532598232323
2.0360992606672963 12.22734641518015 26.911920197686992 224.44919713518837 0.7411663590500364
2.0438671455954838 12.168817155841145 24.980690870547257 237.03610270873088 0.762782576079748
2.0505494847928434 12.108177185113105 23.22407791708247 250.48358748922803 0.7855807033249279
2.0561412508431967 12.045464382224727 21.627061104964394 264.86548855260145 0.809651762483225
2.06061780659547 11.98070671593169 20.173657765212553 280.2632341167495 0.835094951925567
2.0639574200603126 11.913886063307256 18.850050571791787 296.76590644489346 0.8620157222463554
2.0661379463760783 11.845038814349222 17.64491038583077 314.4732327096509 0.8905331002207946
2.067158410771738 11.774216394341186 16.54798996840721 333.4952485098373 0.9207757887470334
