M[M_sun], R[km], Lambda[1], P_c[MeV/fm^3], rho_c[fm^-3]
0.24162668629717493 15.618656898711224 2160425.4255784233 3.5677272577965504 0.1711233750220791
0.25364443084768523 15.277267620842197 1723267.0734926811 3.784826740510246 0.17388826198131596
0.26604070924838397 14.981254832698367 1382921.1075897615 4.011416484480753 0.17666684238824729
0.2788163249405396 14.7234814485625 1093994.9053890733 4.247752360205823 0.17945779427110023
0.2919712036334209 14.498398498129392 905888.9199454077 4.49445962363652 0.18226768517339967
0.3055078866097931 14.301150576487052 738647.7194165178 4.7516938316865645 0.18509222041471549
0.31942372021106896 14.128111793155176 605083.6404273032 5.0201373834631635 0.18793802125480946
0.3337235161192339 13.975899937771171 497664.3120269909 5.300014142391753 0.19080170693935014
0.3484037514586794 13.842004440570634 410992.4772826382 5.592052992558277 0.19368957947418808
0.3634670325081314 13.723962788442714 340632.1777328634 5.896420886299284 0.19659669577136926
0.3789206217207321 13.619980078345138 283299.08297809307 6.213982060038508 0.19953073978002697
0.39475124265595496 13.52848313742306 236394.13312062764 6.544993732227211 0.20248788627174477
0.41097899918995595 13.447871568457625 197858.35502175806 6.890158731822376 0.20547185362096318
0.42758631672728165 13.377058147323224 166072.77850571534 7.2501820167521425 0.20848571247846368
0.44458327996572466 13.314908254044743 139796.14844490145 7.625322371638375 0.2115250063716813
0.4619650786485639 13.260553228049359 117975.62219512329 8.016529201602179 0.2145959032365117
0.47973030074504247 13.21313477330046 99801.3402788059 8.424507395787025 0.21770004780984603
0.49788826280956777 13.171966374612698 84636.9781220527 8.849697675866238 0.22083490571990907
0.5164266313756835 13.136398962770476 71934.36769737111 9.292973660958115 0.22400388903458204
0.5353456437683116 13.105832276206655 61272.0060409709 9.755220117083898 0.22720991547302677
0.554653559010625 13.07981236500524 52302.86503529827 10.237246710391634 0.2304543360966251
0.5743360922132632 13.057833306988467 44726.09855744358 10.739524122386518 0.23373384102743677
0.5943945010550427 13.039508781654387 38323.04901674821 11.263298088003538 0.23705463105638863
0.6148318011720493 13.02449231480281 32899.21582090903 11.809505843365407 0.24041831561691798
0.6356368084796893 13.012439153236938 28290.35938729621 12.379126499301197 0.24382652784887635
0.6568075944210942 13.003009245455315 24368.70532740966 12.972848547705063 0.24727721217285123
0.6783400965302647 12.995990298448422 21025.75377066066 13.591999885530466 0.2507751660461709
0.7002291502818222 12.991062236340118 18171.29125273255 14.237777826609463 0.2543230210526035
0.7224581784237638 12.988030074164563 15727.697106469117 14.911372196570987 0.25792276207613873
0.7450510356360339 12.986658378315122 13632.792504114454 15.613810921768923 0.26157426768790387
0.7679729427020408 12.986753300766415 11835.115857481198 16.346363806609798 0.2652794686586425
0.7912192195301382 12.988136712558623 10287.903940240427 17.110645357066225 0.2690430387175215
0.8147957943294002 12.990666916510754 8955.599435756922 17.908110799920927 0.2728674107996582
0.838676882042262 12.994136502502057 7806.755067497028 18.74012031900164 0.2767536194031639
0.862857856952287 12.998401880932589 6813.337472276088 19.608028810731692 0.28070223812909745
0.887340306713782 13.00335315911378 5954.860998972928 20.513917338652345 0.2847195825245481
0.9120960432975674 13.00884776685971 5210.5565389797475 21.459580263882735 0.28880866640090935
0.9371167458725795 13.014746927539314 4564.804365079278 22.446495048733958 0.2929693571028757
0.9624012116766594 13.020949169925695 4004.1226687113435 23.47670067918054 0.2972055623812698
0.9879226291780528 13.02733969964156 3516.281516316894 24.552613296902642 0.30152333013559973
1.0136628082243504 13.033797303911472 3091.672841163288 25.67616705391731 0.3059242305746026
1.0396297411187994 13.040252689842864 2721.152880571367 26.849339835574572 0.3104096460097587
1.0657811604205074 13.046581341934994 2397.895350298378 28.07522083095559 0.31498825237054207
1.0921133365889182 13.052708913671257 2115.565459861484 29.355854448408518 0.31966042149132456
1.1186076868647397 13.058554647798681 1868.2806242696465 30.694018010900926 0.3244309854341284
1.1452441389118235 13.063996162391451 1651.9120140707985 32.09308977466758 0.3293078551379606
1.1720078836402557 13.06901253494713 1461.897646781711 33.55503291465216 0.33428887097979554
1.198863894994686 13.073470197049469 1295.2474513013922 35.08437975324043 0.33938753092132545
1.225810779707192 13.077332792420528 1148.9259240804586 36.68314073183139 0.34460051729902597
1.252807412204159 13.080493413554313 1020.048828317534 38.35638138091121 0.3499423484562661
1.2798517647208072 13.08293850970612 906.5847575179695 40.10635486518807 0.3554096796744976
1.3068940895523589 13.084521087684537 806.6320337880759 41.938508346201125 0.3610169288910724
1.3339302385797367 13.085238631916571 718.498147165346 43.85634865116001 0.3667661547078979
1.3609398601911098 13.08503572260868 640.536725899952 45.864544336946224 0.372664999067515
1.3878716068586847 13.083773749300478 571.7164793712535 47.968439152668275 0.37872347633894393
1.414728759054104 13.081482554993354 510.7432538728584 50.17280120458783 0.38494729462731453
1.4414527668875692 13.078027582182855 456.8194336490062 52.48282951149465 0.3913433158451115
1.4680471782028188 13.07343158512521 408.9468064290191 54.9049512156027 0.3979232865490348
1.4944567427357858 13.06756247863573 366.47948134228466 57.445356632973976 0.40469626851397583
1.520669211169924 13.06041455152465 328.79923814457754 60.11067422890234 0.4116720336639474
1.546652664699402 13.051925706609245 295.25259261887726 62.90801006114597 0.4188611225449581
1.5723690529313132 13.042043619537097 265.42957969117003 65.84499099966649 0.42627490757197034
1.5977939338477554 13.03071614937935 238.8894020368135 68.92981210626667 0.4339256616087432
1.6228803139247048 13.01789254499809 215.20377495100414 72.17128860517916 0.4418266325077936
1.647631995480834 13.003550850207896 194.07198387180776 75.57891292970352 0.44999212431353136
1.6719815722423261 12.987618013336338 175.19894921446587 79.16259565236398 0.4584362423685434
1.6959183777969744 12.970065929892225 158.3434959422709 82.93258504655113 0.4671724930959952
1.7193984891138665 12.950852552504385 143.2584700215275 86.90159278981325 0.47622231354585803
1.7423811933318543 12.929914739800179 129.7609532508585 91.0811738773271 0.4855999516381229
1.764863236277592 12.907261686622245 117.66355579123957 95.48546704785764 0.495327520401242
1.7867901682742386 12.882824687290878 106.80914805421928 100.12809432234238 0.5054223562424228
1.8081280033406757 12.856563727730759 97.07008571575038 105.02560693027822 0.5159102573367973
1.8288376226318512 12.828427232232071 88.31717511216014 110.19454811664944 0.5268137641855959
1.8489172101147762 12.798459439371936 80.45425042971175 115.652585436613 0.5381563791697371
1.8682931638693725 12.766519900577302 73.37531376644303 121.41986508702962 0.5499671970347932
1.8869723556899956 12.732697018804602 66.99867958039773 127.51782542375959 0.5622760703829964
1.9048951972272237 12.696879863960143 61.24876559245197 133.96892938542675 0.5751123710619486
1.9220351389373145 12.659061719345512 56.06590952348028 140.79887411893299 0.588512436892024
1.9383489870270993 12.619172860761186 51.38312017762309 148.03533284064628 0.602514509695133
1.9538449942251734 12.57732578381414 47.15838436518733 155.70678286789803 0.6171542715124926
1.968460194649096 12.533393589702284 43.33238016265758 163.84689863392765 0.6324794084837497
1.982175130576144 12.487391817113306 39.87468631883556 172.48949492310012 0.6485316106619285
1.994964483183274 12.439315153121937 36.74084498162107 181.67379874314497 0.6653638224272175
2.0068007036088433 12.389151434741722 33.89929582832444 191.44185384762932 0.6830305866732238
2.017646028035237 12.33687640678491 31.323175322114245 201.8397013877859 0.7015911459964105
2.027482013439168 12.282489499908284 28.988981859109 212.91725531094053 0.7211080442519827
2.0362904782089855 12.22602302153073 26.86533068398339 224.73009437820394 0.7416518966218038
2.0440356087505265 12.16742505783573 24.938864095326046 237.33930523992777 0.7632995642480975
2.0506949930319887 12.106716246072383 23.184716891889458 250.81180752771598 0.7861337953251246
2.056266279873392 12.043968457627011 21.590910627726213 265.22078464669363 0.8102429958260624
2.060712272206707 11.979116987524593 20.139300481080575 280.64779705345546 0.8357262417355311
2.064016853686384 11.912220701334356 18.819150281285996 297.1827770227226 0.8626911272777734
2.066176234967271 11.84331738216021 17.61586258456762 314.92607520689734 0.8912580119916219
2.0671688820765866 11.772422501640277 16.52151657970115 333.98704853599577 0.9215525476036418
