M[M_sun], R[km], Lambda[1], P_c[MeV/fm^3], rho_c[fm^-3]
0.24162668629717493 15.618656898711224 2160425.4255784233 3.5677272577965504 0.1711233750220791
0.25364494290934503 15.277271681799734 1723260.3051781654 3.784838027499877 0.1738884026681967
0.26604146537964163 14.981254830702156 1382942.0065087453 4.011440212125554 0.1766671291228316
0.2788175448909927 14.72349164120209 1116419.4784743541 4.247789331393003 0.1794582230811571
0.2919736066620869 14.498347001930048 905807.2328452613 4.49451080866708 0.1822682551305944
0.30551026724244223 14.301151012629711 738595.1368875713 4.751760968701028 0.1850929456226046
0.31942847307341377 14.12805077489984 605044.1151877844 5.020220967164886 0.18793888846797518
0.3337253517178524 13.975906822866206 497623.03160737845 5.300116373509825 0.19080273623707703
0.34840983309114 13.841952851821544 410960.7247576988 5.592174126497579 0.1936907514783736
0.3634740651787747 13.72390960504439 340619.52489119465 5.8965636447358065 0.196598036588816
0.37892772526224044 13.619957226939102 283265.58729602623 6.2141481707759505 0.1995322545099421
0.39476268238583995 13.528387427615431 236373.7081841478 6.545183022958439 0.20248954609573838
0.4109891109780516 13.447800934476351 197837.97827772246 6.8903748570955 0.20547369423448256
0.4275985624004209 13.376993796386069 166055.97267694128 7.250427004925298 0.2084877392028351
0.44459553249146905 13.31486480165155 139780.6023520521 7.625595545735682 0.21152718101314624
0.4619786206508998 13.2605137884414 117960.5598526072 8.016835326826271 0.21459827136261167
0.4797446715957606 13.21310925538701 99789.89894850586 8.424848859571485 0.21770261514014755
0.4979048792504074 13.171925735260354 84627.90792662995 8.850073219301354 0.22083762481483665
0.5164447059451889 13.136351138845615 71930.71441398906 9.293389362022591 0.2240068155959919
0.5353644724817097 13.105826476344854 61262.547915771094 9.755678794715834 0.22721305582288723
0.5546727265330698 13.079793200027066 52293.46853246538 10.237750834474364 0.23045769014089554
0.5743578699837538 13.057808534109983 44719.80956283553 10.740072541025516 0.23373736204497797
0.5944166196057404 13.039496771560964 38319.60625281878 11.263898528996974 0.2370583826225814
0.6148554300073892 13.024479604937072 32893.195084422616 11.810161854314927 0.24042230525802116
0.6356623956553891 13.0124133913971 28284.1909045531 12.379841849154893 0.24383076348844115
0.6568347226383587 13.003012180032277 24364.2018921637 12.973619951431363 0.24728162120022176
0.6783684178423761 12.995966325866837 21022.16908195744 13.592838298277433 0.2507798341037218
0.7002586841234986 12.991058169089131 18167.283521835157 14.238687744435174 0.25432795740121655
0.7224949904447867 12.987998302044513 15724.412622818225 14.912358404439612 0.257927976528894
0.7450856822617574 12.986653881367413 13630.198152909508 15.614868888852952 0.2615796753138601
0.7680082047706703 12.986759515541337 11832.532802090023 16.347507861445504 0.26528517148505965
0.7912546474133352 12.98814667633844 10286.99227877769 17.11188124224535 0.26904904840864174
0.814833028680611 12.990674718090403 8953.458049554025 17.90944463879598 0.27287373976974627
0.838717459810504 12.994134442656817 7755.766061534112 18.741546195157586 0.2767601705663323
0.8629010704032457 12.998414084128003 6811.958130532251 19.609565266017427 0.2807091312349729
0.8873837927485443 13.003363420845167 5953.297988588335 20.5155717690624 0.2847268324951284
0.9121423200725984 13.00885601423493 5209.392376068271 21.461360571916952 0.28881628916435786
0.9371642843772238 13.01474931317362 4563.635737562474 22.448393817776626 0.2929772435084838
0.962450366800997 13.02096116232921 4003.101831252193 23.478741740147875 0.2972138517363165
0.9879726180750804 13.027355111182894 3515.2845672207154 24.55480625829288 0.3015320417301555
1.01371756940512 13.03380351474945 3090.6980745295996 25.678503426408653 0.3059332470860066
1.039684227007923 13.040266129803413 2720.4421799043084 26.851848185191493 0.31041912210293404
1.0658378508149655 13.04658887316967 2397.2779934090217 28.077912900941 0.3149982115080198
1.0921720735491585 13.052721688963755 2114.7833655259365 29.358720696752517 0.3196707382254775
1.118671877050789 13.058554003375876 1867.6531143211998 30.6970926619362 0.32444183146488775
1.1453062418648616 13.064012361963341 1651.3727647826381 32.09636279243118 0.329319100904617
1.172071270463131 13.069021223602764 1461.4174544542439 33.55854269612271 0.3343006993052249
1.1989303602400663 13.073474263370073 1294.9211063539876 35.088142866308104 0.33939997451605797
1.2258769832585594 13.077344770670923 1148.5757894887972 36.687146255117405 0.344613438497105
1.252875133302654 13.08050050204337 1019.7045285475245 38.36064557195312 0.34995577598506383
1.2799193071541342 13.082945730592504 906.3067282275496 40.110926197499516 0.3554238218494858
1.3069646016468004 13.084527487967332 806.4300832807216 41.943375884101656 0.36103164419557443
1.334004234194577 13.08523702308201 718.3024328816576 43.861566975351955 0.3667816662661149
1.3610134478209694 13.085029482683952 640.3302233484347 45.87010251203014 0.372681161485638
1.3879460519040734 13.083768655588292 571.5385805894227 47.974360922484095 0.37874033160742865
1.414797146587847 13.081455883699714 510.59616639507396 50.179151512620635 0.3849650888902409
1.4415284754450515 13.078018407043537 456.67311073458575 52.48959827554546 0.39136190033515833
1.4681245983111366 13.07341363765336 408.82403675403793 54.91216841127369 0.3979427139417968
1.4945354369529147 13.0675422554058 366.3658779346888 57.453054664139955 0.4047165955574963
1.5207474002208798 13.060392114109002 328.6993128462754 60.11888814514247 0.411693321513194
1.5467336471318083 13.051897766197891 295.1547734073584 62.91677779687228 0.4188834371294474
1.5724483907787021 13.042012993466962 265.3403579637002 65.85435363736688 0.4262983200001014
1.597862567879258 13.03067132947118 238.80529117627285 68.93981416657249 0.43395024861281417
1.622960101166092 13.017849392587774 215.1342619985548 72.18197836680162 0.4418524769341527
1.647711994414017 13.003501967880469 194.00182190336423 75.59034278265966 0.45001931566284575
1.6720614350297516 12.987562293952463 175.15100567986113 79.17476279521293 0.45846462817360883
1.695997899092954 12.970001847324074 158.28719552057265 82.9456082080063 0.46720242028308956
1.7194781302137232 12.950782898622197 143.21113773083997 86.91553902049446 0.47625389489667497
1.7424588720237844 12.929827522553936 129.72292964206167 91.09604898184169 0.48563304327033874
1.7649416841615064 12.907176682304673 117.61572052325691 95.50141434769131 0.4953625123379361
1.7868674581495085 12.882736210900465 106.76861356614452 100.14512770401394 0.5054591135410977
1.808204217893504 12.856466421459793 97.03567689835084 105.04381473435132 0.5159489216469116
1.8289177661859612 12.828332297237141 88.29012971006888 110.21402670210685 0.5268544887263324
1.848990399849264 12.798342325746734 80.42518250142986 115.67351959338426 0.5381996219138044
1.8683642284608828 12.766395081104921 73.34743291014928 121.44229290809967 0.5500128518596124
1.8870402234963344 12.732565899909591 66.97228173284645 127.5417875645911 0.5623240287106982
1.904961496244314 12.696738829017637 61.22719063500439 133.99464580970675 0.5751631432683563
1.9221010838056873 12.658908755970941 56.04721382323156 140.82649564933476 0.5885662541371839
1.9384124335322266 12.619008201809201 51.36655008024371 148.06502491751408 0.6025716238822612
1.9539059329717363 12.577152072101702 47.14144371530164 155.73862938208234 0.6172146238447529
1.9685189988789602 12.533212594314831 43.32092580025278 163.88109260737983 0.63254328311033
1.982229596427098 12.487199724819144 39.85978318128911 172.5263512594628 0.6485996618572338
1.9950140355327342 12.439105313458471 36.72700084152871 181.7134510698736 0.6654360496901642
2.0068473890263836 12.388934638523397 33.88553715743995 191.4845597086519 0.6831073595117638
2.0176904788155214 12.336647394885462 31.313459531527247 201.8857448870887 0.7016728686658562
2.027523181555097 12.28225248100009 28.977707056605446 212.96683405249937 0.721194779294138
2.03632802335023 12.225768845459882 26.857008578983677 224.78366735123643 0.741744498781082
2.044066203668942 12.16716254091138 24.92950841217775 237.39713348233693 0.7633981667135981
2.0507214924444015 12.106439700411128 23.177273222211866 250.87430891475725 0.7862389613533313
2.056289635721946 12.04367713325895 21.584783744703632 265.2885187719915 0.810355657199114
2.0607302158388987 11.978814134023992 20.132900396198128 280.7210869543904 0.8358464542311395
2.064030035979521 11.911904713996911 18.813233067562738 297.2622918055491 0.8628199554734999
2.066184708392109 11.842988318226904 17.61064645979284 315.0124535125193 0.8913962866696176
