M[M_sun], R[km], Lambda[1], P_c[MeV/fm^3], rho_c[fm^-3]
0.24162668629717493 15.618656898711224 2160425.4255784233 3.5677272577965504 0.1711233750220791
0.2536417562628371 15.2773790629193 1723213.0058893696 3.7847990449532447 0.17388791676955873
0.2660377629252402 14.981292932756949 1383046.8485879397 4.011358262974473 0.1766661388157039
0.2788112841386324 14.723606289845808 1116465.2776214704 4.247661643110556 0.17945674208950288
0.2919644427863168 14.49850229573858 905970.6793581916 4.494334030554205 0.18226628666527944
0.30549830262344013 14.301313668949964 738741.3552303588 4.751529098254117 0.18509044097924657
0.31941303326019493 14.128223648671705 605175.2262908629 5.019932296308373 0.18793589339642214
0.3337089846399306 13.97607735531241 497750.1564302012 5.299763302262152 0.1907991813954641
0.3483889468460639 13.84212775790326 411069.1190507351 5.591755773267618 0.19368670379578876
0.3634492602835657 13.724093746766501 340700.2474602772 5.896070610566742 0.196593405907563
0.37890185386765446 13.620088041300628 283353.0171597668 6.213574489194105 0.19952702322467325
0.39473183389743943 13.528546986440759 236448.45244063355 6.544529289532772 0.2024838137367459
0.4109543181601372 13.447958994005793 197908.0863675908 6.88962845147243 0.2054673375309795
0.4275605578414959 13.377157760432462 166118.40456956442 7.2495809228708 0.2084807397828305
0.4445534390411172 13.315004214971774 139841.84809358147 7.624652125677382 0.21151967078286507
0.4619320164260359 13.260646788810034 118011.44171242489 8.01577811319332 0.2145900929604403
0.4796938483200553 13.213233296785095 99842.5485125055 8.423669608317592 0.2176937488192813
0.4978488384090824 13.172057462085727 84667.80743463458 8.84877627846214 0.22082823440902058
0.5163847375701052 13.136480443579664 71960.16993193152 9.291953742973035 0.2239967087483826
0.5353007163790575 13.105907065903795 61295.08578914285 9.754094763528629 0.22720221070690305
0.5546052718571859 13.079848473905482 52315.85639208798 10.236008586107452 0.2304460906718863
0.5742849681255495 13.057878104088536 44744.597610150246 10.738178607056701 0.23372520240223085
0.5943386349748659 13.039557673439887 38341.571907772035 11.26182494766507 0.2370454268488955
0.6147713517131138 13.024536165484635 32913.33743547118 11.807896375826653 0.24040852736894505
0.6355709990337474 13.012452349016048 28305.20421434664 12.377371459480628 0.24381613612786956
0.6567401835080162 13.003039199345869 24380.10858962751 12.970955994995741 0.2472663951176425
0.6782676929190151 12.995998372474068 21035.77384061467 13.58994294618947 0.2507637135590073
0.7001541816763023 12.991066916308545 18179.64783967896 14.235545472205972 0.2543109104210145
0.7223855063195768 12.987995248955825 15735.27224990922 14.908952690099147 0.2579099692333822
0.7449692857903294 12.986644144376783 13640.154374152064 15.611215378387838 0.2615610009918317
0.7678863188462485 12.986760908171089 11840.773520471525 16.34355707858356 0.26526547782338344
0.7911279498942224 12.988126993810386 10293.672084124757 17.107613358717995 0.26902829513627485
0.8146996286615601 12.990656550723887 8960.59546496246 17.90483851174041 0.27285188402622146
0.8385776531353396 12.994112664482397 7810.532009985723 18.736622254585647 0.27673754760711955
0.8627558954960945 12.9983864177309 6817.816618560697 19.604259488684413 0.2806853275582583
0.8872272880476308 13.00333216628693 5958.837195272412 20.509858618276564 0.28470179658254685
0.9119844470488032 13.008831114158436 5213.895106432279 21.455212762289715 0.2887899660238597
0.9370007848979595 13.014713925841612 4567.66261273795 22.441836958825345 0.29295001004930954
0.9622752458729151 13.020910388326428 4006.3586777123664 23.471693548030288 0.29718522693390503
0.9877967720113827 13.027305930737077 3518.3919734545625 24.547233557746384 0.301501958985814
1.0135362835072461 13.033760042922397 3093.801110971748 25.670435530298544 0.3059021115211286
1.0394951509374788 13.040220052124631 2722.898586305286 26.843186462088873 0.3103863996727649
1.0656461435921334 13.046557309558642 2399.4708910009495 28.068616805611825 0.3149638212091452
1.0919718337438065 13.052682779188974 2116.9825702685316 29.348823176127816 0.3196351132283372
1.118466753616474 13.05851262441413 1869.6297279688604 30.68647555016802 0.3244043789151538
1.1450934663123005 13.0639682726611 1652.9039586629629 32.08506074145009 0.32928026817065326
1.1718538153397287 13.068986073403526 1462.9682097628022 33.54642313500672 0.334259855134685
1.198706170538637 13.073440695785262 1296.1821485472644 35.07514859367429 0.33935700597921326
1.2256495512639143 13.077311860478373 1149.7046249524203 36.673314979162846 0.3445688209419111
1.2526413464082373 13.080478033076076 1020.7690023672634 38.34587040476694 0.34990911246429185
1.2796809679069205 13.082920991597646 907.26403859523 40.09514129712918 0.3553749886411345
1.306721888354724 13.084512589358015 807.2587144761528 41.92656824972441 0.3609808321705066
1.3337561796977913 13.085232691305357 718.9699187369572 43.843548167333076 0.3667281050500415
1.3607617109417864 13.08503893886673 641.0190991154851 45.850910285492695 0.37262535309793404
1.3876909491887806 13.08378340656289 572.1836657677358 47.95391330264104 0.37868213108072
1.4145447017157786 13.08150012758342 511.15070112824554 50.157224287258906 0.3849036463883471
1.4412659633350384 13.078056080814592 457.14809938186914 52.466226253221755 0.3912977295185975
1.4678595066791662 13.073464321121255 409.2857606074182 54.887248104432494 0.39787563295759976
1.4942655471268493 13.067608918957967 366.77642923736653 57.426474202655655 0.4046464084946311
1.5204757705301022 13.060473266523015 329.05146938872576 60.09052652580897 0.41161981724810165
1.546458610034415 13.051994451671884 295.48722080625896 62.88650405800779 0.41880638805716836
1.5721731691868657 13.042125957575038 265.6407963686613 65.82202595019292 0.4262174806387136
1.597596438961481 13.030809245147962 239.08196911157995 68.9052788340125 0.43386535406746224
1.6226784354228025 13.017973098828366 215.38007478814586 72.14506871919625 0.44176324120531535
1.6474350291352122 13.00367473047275 194.23428727242646 75.5508779585922 0.4499254297816391
1.671784335164787 12.98775377779487 175.34477933948156 79.13275246173677 0.4583666185462384
1.6957225404436018 12.970218044670107 158.4730006315914 82.90064249554982 0.46709908920682597
1.7191860143760747 12.950981194995913 143.38969879898835 86.8673864617623 0.47614485304265625
1.7421913068184571 12.930098971539826 129.8732174738426 91.04468953353238 0.48551878740258386
1.764672335033017 12.907465508616236 117.76295794073712 95.44635325523427 0.49524169600654083
1.7866009053817202 12.883044571212436 106.89483660630967 100.08631702443998 0.5053322026460062
1.8079407590803518 12.856806062264477 97.14993017305936 104.98094951008311 0.5158154272114074
1.8286543936541813 12.828690078566883 88.391934677433 110.14672011087185 0.5267136801602241
1.8487369721733493 12.798740698680687 80.51870493971018 115.60124212773978 0.5380503216108189
1.868126421693033 12.766855851991401 73.43518105468154 121.36485887813765 0.5498552245510159
1.886800806087926 12.733025743665806 67.05430909569388 127.45886706046693 0.5621577720107694
1.9047275369067285 12.69722959059854 61.29890613384728 133.90585865877878 0.5749878498642588
1.9218748129386403 12.659438001394038 56.11382427480768 140.73113167615344 0.5883804488523404
1.9381927304502968 12.619567366214246 51.42951787247596 147.962513050691 0.6023744372061436
1.953697222032957 12.577756691066696 47.19936352082201 155.62868003073586 0.6170062588178661
1.9683187419018302 12.533845164399441 43.3684289952364 163.76299569586763 0.6323226106627896
1.982042773873384 12.48787313941439 39.906987615291555 172.3991074452719 0.6483647200668811
1.9948376086377224 12.43981919662661 36.770693052291676 181.5765552909548 0.6651866921306963
2.0066767649710564 12.38967146009222 33.92789013251417 191.3371230063186 0.682842310783742
2.017536683368849 12.337438529354543 31.347464014477616 201.72678663776506 0.7013907334532451
2.027382762052419 12.283080791979252 29.011255951503827 212.79567217788755 0.7208953418347943
2.036201546330751 12.22664020788441 26.88826559277924 224.59871764519855 0.7414248088111675
2.0439564665550987 12.168073979097247 24.95847565181138 237.197494937622 0.7630577646557499
2.0506262996067774 12.107396751539511 23.203024744316004 250.65836688521918 0.7858753418796264
2.056203830597443 12.044657990414931 21.60737342045318 265.05460640554753 0.809966465578043
2.0606699024978314 11.979857719581293 20.15562362824946 280.4680772683299 0.8354314594585116
2.063991506982003 11.913005607811579 18.833732720581946 296.9877953239676 0.8623752219887522
2.06615867114709 11.84412093341865 17.62965969639568 314.7142660931217 0.8909189472601134
2.0671630741754914 11.773261078746776 16.533212894484375 333.75701518602665 0.9211892283022999
