M[M_sun], R[km], Lambda[1], P_c[MeV/fm^3], rho_c[fm^-3]
0.24162668629717493 15.618656898711224 2160425.4255784233 3.5677272577965504 0.1711233750220791
0.2536439902922166 15.277298750521801 1723288.1033525101 3.7848197787102236 0.17388817520583716
0.26603996145922787 14.981258389444257 1383033.107566065 4.011401849351418 0.17666666553134636
0.2788148581185484 14.723523111032344 1116491.4967762008 4.247729556580653 0.1794575297834126
0.2919694623714138 14.498416290261918 905865.0461597252 4.494428053092486 0.18226733362806471
0.30550448196780433 14.301244966357968 738658.9760775156 4.751652422213367 0.18509177311337377
0.3194210912264192 14.128135951604854 594854.4256092228 5.020085829988551 0.18793748636761254
0.3337188545271865 13.976014037775684 497690.81692791526 5.299951087603981 0.19080107208226407
0.3484000047089514 13.84203501680878 411010.5393867073 5.591978278984665 0.1936888565998104
0.36346262616195824 13.72399810147696 340643.96424182603 5.896332835338155 0.19659586877810878
0.3789160261806455 13.620006721888105 283315.131209311 6.213879606094032 0.19952980552341593
0.394748439202777 13.528464095415183 236410.9435541006 6.544876981632501 0.2024868625267515
0.410972603768254 13.447880592137173 197875.79792592238 6.890025430642582 0.20547071837217837
0.4275807522225383 13.37706085573797 166083.43970929756 7.250030914043083 0.2084844624444759
0.44457561568003734 13.314931832464364 139806.0248950509 7.625153884995045 0.21152366510966386
0.461956823965705 13.260574420358243 117981.21828262696 8.016340392123794 0.21459444264255048
0.47972178412210986 13.213172883448683 99809.7551430076 8.42429679109309 0.2176984643569676
0.4978779702470589 13.171992619982637 84646.31759802428 8.849466052458148 0.22083322866746943
0.5164165511564295 13.136407266322596 71940.50572009178 9.292717270329396 0.22400208402857177
0.5353362173220483 13.10583659041019 61278.89932434827 9.754937220753424 0.22720797861500258
0.5546407679365757 13.079831573312905 52301.578271206214 10.236935464237142 0.2304522633186537
0.5743236077319871 13.057841450753772 44730.45234933269 10.739185878756336 0.23373166939855625
0.5943801044119507 13.039523521462414 38329.670120288 11.262927760036344 0.23705231724054804
0.6148167560156085 13.024521779696558 32901.88810911476 11.809101243231188 0.2404158549730415
0.6356203169376838 13.012453828320602 28293.531788467 12.378685302672089 0.2438239154908973
0.6567907055099143 13.003015135264123 24371.688365197235 12.972372780633062 0.24727449288336514
0.678322608774077 12.995987130362625 21028.186527848837 13.591482791784 0.25077228700672827
0.7002095230085256 12.991054465074068 18172.785076414995 14.237216633474931 0.25431997655245964
0.7224445790521261 12.98800233036513 15730.36671043126 14.910763953176621 0.2579195460640336
0.7450318780659799 12.9866507104398 13538.216213338072 15.613158422440462 0.2615709325441567
0.7679517398922115 12.986759373363064 11837.053439559739 16.3456582148252 0.2652759514605648
0.7911958169685643 12.988136520138095 10290.188757292202 17.109883131421874 0.2690393322723243
0.8147689448374695 12.990680528604969 8956.514773489434 17.907288164214773 0.27286350745205373
0.8386511250569063 12.99412346657973 7807.774180461248 18.73924092201602 0.2767495790290272
0.8628321926146896 12.998399226843805 6814.789205029222 19.607081217743353 0.2806979868769744
0.8873118038447042 13.003358042257615 5955.6383438704415 20.5128969886803 0.2847151111927628
0.9120676694192148 13.00884598276661 5211.27274442919 21.458482283610614 0.28880396516734497
0.937088429969755 13.014728796285665 4565.475052043938 22.445324012051003 0.2929644932831819
0.9623661840179762 13.020932431755654 4004.651558709978 23.475441889846813 0.29720045006376283
0.9878900774635513 13.02733226983783 3516.6700519753813 24.55126082960742 0.3015179574250822
1.0136312222211326 13.033790276377307 3092.0821490963867 25.674726144014343 0.3059186698257835
1.0395964112936948 13.040246146626231 2721.616922970124 26.84779286696153 0.31040380184090055
1.065746895901349 13.046572581473306 2398.474902869787 28.07356056195808 0.31498211031358
1.0920786134542406 13.052701682451925 2115.8969342165506 29.35408676348097 0.31965405891094945
1.1185759204442618 13.05853588489044 1868.6891431825047 30.692121804847602 0.3244242964444042
1.1452061609051603 13.063988867167874 1652.1763635496404 32.09107123649524 0.32930091963961844
1.171969162275648 13.069008419834919 1462.1538144248818 33.552868366217375 0.33428157622839605
1.1988244897074238 13.0734658854697 1295.5703610790665 35.08205897785917 0.3393798567463033
1.2257702492012794 13.077326649053207 1149.1274374149746 36.68067046442826 0.3445925485987727
1.2527655217464755 13.080497549162315 1020.2164598223916 38.35375159612133 0.34993406751607115
1.2798071161787052 13.082938394973365 906.7507213531159 40.10353567154327 0.35540095803119237
1.306850391412696 13.08452417850423 806.7819014917812 41.9355064873408 0.361007853816958
1.3338866508719631 13.085239056022639 718.6068439688313 43.85313046989898 0.36675658860886934
1.3608948961211857 13.085032432478648 640.6632179260092 45.86111657668042 0.3726550316062881
1.3878260261757758 13.083774774378917 571.8362521196906 47.9647871718455 0.3787130816226372
1.414682788492751 13.081485490910854 510.86371007704184 50.16888495638859 0.38493632086828083
1.4414055040111569 13.078034922476435 456.8999711701154 52.47865521308344 0.3913318547856488
1.4680004950153447 13.073435894630771 409.04328588314036 54.900500382889845 0.3979113057078366
1.4944086748975176 13.067574549845498 366.5575127016464 57.440609284596825 0.4046837328987012
1.5206206904849597 13.060428670190198 328.8551719369984 60.10560875216642 0.4116589055650036
1.5466038680519378 13.051944358057654 295.3094234497069 62.90260306458924 0.4188473613088459
1.5723194155000075 13.042065036834705 265.47974058174157 65.83921715075734 0.4262604693519995
1.5977437966572532 13.03073820663894 238.93653040070367 68.92364395256337 0.43391049909066426
1.6228316669266396 13.017919355664292 215.25438154871978 72.16469637707628 0.4418106946076079
1.6475822581774653 13.003582338907368 194.1072270349307 75.57186432265424 0.4499753558444012
1.671931950719757 12.987648487743245 175.24640984946416 79.15509239329883 0.45841873735098726
1.6958690980855082 12.970105586205438 158.37436747215517 82.92455392622163 0.4671540376048684
1.7193493480718798 12.950894226369913 143.2866915742572 86.8929924643656 0.4762028380401598
1.7423351178893465 12.929956118527159 129.78347160684334 91.07200076700711 0.48557954484416144
1.7648148891770212 12.907310860538509 117.68557766642584 95.47563278081006 0.4953059418234545
1.7867414074486558 12.882877292757268 106.82637305289356 100.1175903354678 0.50539968909445
1.808080716908151 12.856626106772351 97.0932170160136 105.01437875282957 0.51588641427845
1.8287915235774985 12.828494747383724 88.33541307693447 110.18253633409135 0.5267886507434943
1.8488713773992667 12.79853231474209 80.47014498577465 115.63967611045324 0.5381297129565571
1.8682582617178098 12.766626756526403 73.3823805755921 121.40603472883669 0.5499390434937732
1.8869279153961382 12.732780592209878 67.0130391915494 127.50301592267344 0.562246378424948
1.9048517146937163 12.69696845702137 61.259445665466515 133.95307120068333 0.5750810620813425
1.9219953287251137 12.659154570119279 56.07860532951735 140.78184121522003 0.5884792503183053
1.9383104356733392 12.61928355310446 51.39580890194602 148.0170232122203 0.6024792902138948
1.9538083214123565 12.577431083973707 47.16517348218381 155.68714478840877 0.617117055386061
1.9684252085061638 12.533508555971911 43.34154253087587 163.8258130922226 0.6324400205166116
1.9821417359983822 12.487512292874591 39.882488139494335 172.46676776399738 0.6484896474475815
1.994930295566272 12.43944270722469 36.745875622880114 181.64934757572922 0.665319284286735
2.006768834510558 12.38928653625434 33.90498650800702 191.4155198822556 0.6829832457878431
2.0176189068371735 12.337017039772322 31.329662506429806 201.81130946050675 0.7015407531261226
2.0274569644681573 12.282636527176196 28.994203547227738 212.88668358677361 0.7210545608496008
2.0362371908640555 12.226293843374956 26.875986618412007 224.6251885111805 0.818343137326612
2.0399044162013924 12.174335619443642 25.431526264493982 238.82761148768174 1.4806689194893183
