M[M_sun], R[km], Lambda[1], P_c[MeV/fm^3], rho_c[fm^-3]
0.24162668629717493 15.618656898711224 2160425.4255784233 3.5677272577965504 0.1711233750220791
0.2536453559133412 15.27724276331364 1723272.9299445755 3.7848459896484186 0.17388850191253719
0.2660425322150873 14.981218339405952 1382849.2912389217 4.011456950309994 0.17666733139391239
0.2788197792368741 14.723417666283074 1116362.1812282107 4.247815412055942 0.1794585255775445
0.2919755397685871 14.498341215171841 905824.7196574829 4.494546916354334 0.18226865719807211
0.3055125138324648 14.30113816380503 738598.4072987679 4.751808329631446 0.1850934572110428
0.31943061198180234 14.128031885083429 605018.6079258171 5.020279930388149 0.18793950023417424
0.3337316543247743 13.975819285078511 497600.6637824554 5.300188491594482 0.19080346234652396
0.3484141134910107 13.841916753497149 410937.4845360751 5.592259579686424 0.19369157826148306
0.36347961845945487 13.723854198937236 340610.5865451367 5.896664353122974 0.19659898246330043
0.3789342925460095 13.61990366617668 283236.6961464932 6.214265353335153 0.19953332307378505
0.3947691330429657 13.528350748913248 236363.80329019148 6.545316558205077 0.20249071701945412
0.4109961673872981 13.44779343194518 197822.47281965168 6.890527323270716 0.20547499270041064
0.4276067101602251 13.376955818969105 166034.16406523905 7.2505998330621235 0.20848916896571898
0.4446043976201721 13.314831175137433 139770.1344820134 7.625788258321786 0.21152871512924543
0.46198620964194337 13.260476334520275 117939.09263605699 8.017051285690354 0.21459994197902058
0.4797555642541824 13.213075954160873 99781.83937628841 8.425089749097529 0.217704426292626
0.49791565892612905 13.171904587969946 84614.89349030824 8.850338151429467 0.220839543036641
0.5164573775866564 13.136350580757373 71917.52626186836 9.29368262478536 0.2240088801841246
0.5353769051087357 13.105811779083435 61255.02659402507 9.7560023769536 0.227215271238169
0.5546879087213442 13.079764156422614 52287.44058245021 10.238103383561592 0.2304600165194492
0.5743733872813167 13.057801672468656 44715.7363200167 10.740459434833658 0.23373984602307094
0.594433127036462 13.039509881557494 38314.74038580684 11.264322124381456 0.23706102925420913
0.6148717498041343 13.024477018805815 32889.63783298714 11.81062465424335 0.2404251198537506
0.6356812398817747 13.01239712424712 28280.54106448004 12.380346512772835 0.24383375163917054
0.6568538688753339 13.00299231617799 24360.565689956562 12.97416416120621 0.24728473168013107
0.6783884835150381 12.995965772062936 21019.483257365846 13.593429783340513 0.2507831273340847
0.7002808873138773 12.99105546335477 18164.82820564229 14.239329676969119 0.2543314399165427
0.7225182381577959 12.988001004261355 15721.863033280846 14.913054160476639 0.257931655253329
0.7451093743242585 12.986651660289507 13627.974425890856 15.615615271883529 0.261583490328817
0.7680329814487279 12.986762932445261 11830.832402007109 16.348314980775893 0.26528919477248913
0.7912830004289542 12.988141712468945 10284.972291316099 17.112753149602625 0.2690532881988676
0.8148586824955147 12.990684103453978 8951.88450795004 17.91038565457189 0.2728782048223171
0.8387458445987742 12.994145306317561 7803.8941844346955 18.74255214520411 0.2767647923863036
0.8629294299622896 12.998429410958359 6810.643919025782 19.610649232506905 0.2807139943089893
0.8874155184599465 13.003368568885227 5952.380281612883 20.516738970365743 0.28473194735221713
0.9121738694408515 13.00886490981143 5208.486227141774 21.46261658379997 0.28882166704351625
0.9371973284312424 13.014761114992929 4536.483891348578 22.4497334075497 0.2929828074017544
0.9624857543118186 13.020968543458459 4002.394995846572 23.480181721967792 0.29721969993034747
0.9880095850849131 13.027357848829652 3515.008478018084 24.55635341170007 0.30153818783617403
1.0137548856117107 13.033816360549606 3090.455020446501 25.68015176178173 0.3059396083296628
1.0397223444206574 13.040276620811275 2719.9103958152523 26.853617857861025 0.3104258076076154
1.065876956500027 13.046605226236471 2396.7546718117014 28.079812196769563 0.3150052378291668
1.0922138126023113 13.052733094340015 2114.5650310099477 29.360742883287177 0.3196780168553734
1.1187142554321952 13.058565126595123 1867.3052866673172 30.699261887170195 0.32444948354746295
1.145348962677483 13.064019816363237 1650.963535431953 32.098671975322524 0.3293270350295863
1.1721149655059915 13.069029706998691 1461.1526025455564 33.56101892904815 0.334309044465494
1.1989750925975409 13.073489133067865 1294.6065484899584 35.09079783956485 0.3394087537928532
1.2259243296084419 13.077352469197518 1148.3466773842888 36.68997226281866 0.34462255476049264
1.25292354372825 13.080515238873756 1019.4971321177534 38.36365408533699 0.34996524950529384
1.2799673131491136 13.082943387172149 906.1425896275541 40.11415141945895 0.3554337996087512
1.3070213590270612 13.084545258791518 806.2822150300021 41.946810098533135 0.361042026346082
1.3340547052240082 13.08523801556948 718.0950552750809 43.86524869475911 0.366792610240238
1.3610645355119533 13.085028881763614 640.1937973072247 45.87402402042364 0.37269256469934964
1.3880053873710791 13.083782724520455 571.3953030949357 47.9785389737756 0.3787522236901086
1.4148499064947548 13.081453561082766 510.49376351842886 50.18363193205587 0.38497764351925085
1.4415831230869993 13.078010641836133 456.5662512687121 52.49437394903183 0.3913750125452617
1.4681783358410014 13.0734039449418 408.73239536039006 54.917260490231065 0.3979564209025596
1.4945906054048674 13.067527848910036 366.28733586046377 57.4584860135409 0.4047309373123252
1.520802700017162 13.060374800148987 328.6204063197009 60.12468349695629 0.4117083412153844
1.5467873723390542 13.051878065879734 295.0858685572481 62.922963918824045 0.41889918130163317
1.5725047730842339 13.041987499423696 265.2787880858469 65.86095951871516 0.4263148388196113
1.5979186633846956 13.030644622971524 238.74331413435374 68.9468712228193 0.4339675962257423
1.6230284484259314 13.01782811367805 215.08047482866903 72.1895206654834 0.4418707118012848
1.647769462815666 13.003466402315112 193.9522506707142 75.59840729263405 0.4500385009409595
1.6721176200130496 12.987520792703462 175.11078358732064 79.18334753906814 0.4584846562828072
1.696055447315239 12.969957523422574 158.24407942512457 82.95479696730239 0.46722353602518996
1.7195337778968685 12.950734565576502 143.17566154229763 86.92537911009796 0.4762761778582107
1.742515594277301 12.929784375754268 129.68424959348388 91.10654449710823 0.4856563919285465
1.7649964697559326 12.907118349752464 117.58788732263925 95.51266642605023 0.4953872019103226
1.786906858534275 12.882639242409232 106.74606389792429 100.15714614391044 0.5054850488129891
1.808258099062405 12.856396303897162 97.01506949182537 105.05666187484721 0.5159762025766833
1.828962360466691 12.828240957339382 88.27044056608746 110.22777054104098 0.5268832234375759
1.8490436299943351 12.798260898783393 80.41074333112917 115.68829053447918 0.5382301335810467
1.8684148320725122 12.766307433380534 73.33236802764905 121.4581178319547 0.5500450656053936
1.8870889702518614 12.732473222525485 66.95822161476549 127.55869515927067 0.5623578679228116
1.9050104694681531 12.696636486790084 61.21161592574126 134.01279130274466 0.5751989681057387
1.922147945162014 12.658800887497218 56.03347511137167 140.8459854757574 0.5886042277306616
1.9384573498399482 12.61889341545994 51.353790599004114 148.0859758288508 0.6026119240025902
1.9539486252631577 12.577030980145773 47.129971733134305 155.76110057822942 0.61725720901085
1.9685575951832357 12.53307707181051 43.309344639461074 163.90522030499437 0.6325883538499892
1.9822704353962028 12.487060675188628 39.85062288447469 172.552357692996 0.6486476798932682
1.9950513780826282 12.438959091479283 36.72115303526912 181.74143054034883 0.6654870146835923
2.006882186375034 12.38878113096872 33.88004250202166 191.51469397069812 0.6831615322360505
2.0177216187940807 12.336486055629374 31.30446871316955 201.9182344410625 0.7017305344193295
2.0275520785529846 12.282084270325498 28.971128756387124 213.001818350189 0.721255982229902
2.036353554828134 12.225591543914621 26.851392767291244 224.82147032272636 0.7418098421172634
2.044090024735836 12.166975473346525 24.925161282748615 237.43793934967445 0.7634677444658994
2.0507409768668157 12.106244357267842 23.171876328534548 250.91841259283004 0.7863131710448564
2.0563057188602034 12.04347325796772 21.57973270968928 265.33624743794485 0.8104349356555051
2.0607424080412193 11.978600547638752 20.128824634347257 280.7728041151716 0.8359312824118844
2.064038794272065 11.911680065442878 18.808823309345087 297.31840193536755 0.8629108639376813
2.066186962301132 11.84275261092388 17.60835204882326 315.07340734902067 0.8914938617731593
2.067171578362412 11.771844344117698 16.512661915237643 334.14705988904325 0.9218052727541636
