M[M_sun], R[km], Lambda[1], P_c[MeV/fm^3], rho_c[fm^-3]
0.24162668629717493 15.618656898711224 2160425.4255784233 3.5677272577965504 0.1711233750220791
0.2536446360097112 15.277296580241405 1723114.768127668 3.784848344634321 0.17388853126630038
0.2660427287906368 14.981220042750785 1382941.8461497857 4.011461901016987 0.1766673912202847
0.2788195885478186 14.723429948998549 1116337.8403539436 4.247823126032454 0.1794586150480473
0.29197648635620876 14.498292180637828 905806.7235746336 4.494557596081255 0.18226877611931
0.30551342891723543 14.30113527021984 738601.1086194379 4.751822337804654 0.18509360852604845
0.3194316117273258 14.128028823908766 605011.0671123129 5.020297370258478 0.1879396811795601
0.3337321673785184 13.975821642692724 497593.00157213496 5.300209822387474 0.19080367711221521
0.34841524157054565 13.841856345595659 410932.4129831379 5.592284854724549 0.19369182280442984
0.36348099909713055 13.723834988702913 340605.7000634637 5.896694140341432 0.19659926223115984
0.3789345951071815 13.619913368673332 283225.046331184 6.214300013294278 0.19953363913087896
0.3947703414978407 13.528356451520269 236345.3054939785 6.545356054983431 0.20249106335284275
0.4109982599577681 13.447784324429607 197818.22910563945 6.890572419477028 0.20547537675862748
0.427608413273045 13.376957939129017 166029.18504150404 7.250650951984475 0.20848959185946295
0.44460695372474685 13.314840033031674 139763.47928378725 7.625845258732214 0.21152916888916357
0.4619894241259261 13.260462673051967 117937.41001924619 8.017115161977475 0.21460043611374324
0.4797586150131405 13.213071116400071 99780.75357088575 8.425160999491531 0.2177049619959827
0.4979187498947213 13.171904279332363 84615.7522876926 8.850416513267975 0.22084011040983323
0.5164606731026496 13.136323109154235 71917.3636324673 9.293769366424371 0.22400949085067093
0.5353814894152641 13.10577157044307 61254.44509053722 9.756098086682876 0.22721592651763775
0.5546911070046667 13.079768608354469 52284.660063764124 10.238207661304594 0.23046070462080512
0.5743773609534067 13.057790351981815 44713.02882750416 10.740573871319208 0.23374058074075615
0.5944375368152269 13.039482302238703 38314.122442444466 11.264447416760241 0.2370618120832591
0.6148790202943719 13.024461006894384 32888.93388681509 11.810761542887205 0.2404259523650989
0.635685442008575 13.012405225961173 28280.03063978581 12.380495784252075 0.2438346354866755
0.6568595307941888 13.002990440772745 24359.927854951722 12.974325130029115 0.24728565171191444
0.6783946639949345 12.995967955389503 21018.373572556065 13.593604735742886 0.25078410142218854
0.7002871365287945 12.99105056027348 18163.702671389543 14.239519551281797 0.2543324699939558
0.7225251034467083 12.987987631183898 15721.924609018848 14.913259955330947 0.2579327433682987
0.7451164237227432 12.98664372653577 13627.454191844761 15.615836041785304 0.2615846187581124
0.7680401820670939 12.986757798240168 11830.003431747587 16.348553716030185 0.2652903848078549
0.7912892907926469 12.988156580023164 10284.625868480081 17.113011048718064 0.269054542274934
0.8148668144268435 12.990673821635273 8951.32214595874 17.910663995531092 0.2728795255302662
0.8387543006061874 12.994150899071135 7803.574728858371 18.742849693321304 0.2767661594659465
0.8629392865640997 12.99842826350685 6810.413091294588 19.610969857487643 0.28071543275107025
0.8874237776198249 13.003378365655198 5951.984537200091 20.517084215825744 0.284733460271354
0.9121834528223475 13.008875737216474 5208.305602722119 21.46298809907723 0.2888232577643475
0.9372080999375907 13.014765991377002 4563.048896256998 22.450129644829577 0.2929844531458317
0.9624950618040675 13.020972914810166 4002.2859769250963 23.480607654922732 0.2972214297706345
0.9880193920006513 13.027363847416009 3514.7166677360974 24.55681104576207 0.30154000579905327
1.0137662891213932 13.033815477531975 3090.2210211800752 25.680639325222174 0.3059414899308789
1.0397334698959229 13.040278859025587 2719.720118339788 26.85414131272302 0.3104277851258257
1.0658900267302123 13.046599581426412 2396.761486841735 28.080373994079714 0.31500731616170524
1.0922253100932429 13.052733306683525 2114.420544070507 29.3613410315702 0.3196801698219274
1.1187263608738605 13.058565589721109 1867.1742321881234 30.699903529570143 0.32445174698260615
1.1453621326913206 13.064022050663493 1651.0095598090559 32.09935501723842 0.3293293818943324
1.1721282735928484 13.069029295985539 1461.0793775468064 33.56175138463293 0.334311512916334
1.1989883109468356 13.073491062217451 1294.5603034046892 35.091583166942 0.3394113506575867
1.2259386032099113 13.077352591918965 1148.291243626336 36.69080818253597 0.3446252513081031
1.252936619782859 13.080518813074598 1019.494993506647 38.36454399070592 0.3499680517319884
1.2799819153699823 13.082950095270398 906.0815270681941 40.115105428086196 0.35543675099273025
1.307035471836299 13.084547422246038 806.2123287762726 41.94782592792414 0.3610450973522285
1.3340705270925322 13.085234647278801 718.0473831404055 43.86633773741329 0.36679584743821764
1.3610793820638927 13.085029649437644 640.1420346652228 45.87518399386672 0.3726959377445517
1.3880215150697714 13.083781369576927 571.3624979222136 47.9797748340488 0.3787557413473905
1.4148656550915761 13.081451601887442 510.45354775229885 50.18495723497237 0.3849813571640743
1.4415984974948064 13.07800717652592 456.52695690051337 52.495786590146295 0.3913788911284911
1.4681946982037009 13.073399273876214 408.7101406873425 54.91876672647797 0.39796047541964563
1.4946055597130152 13.067526612225464 366.2521067291424 57.460092608768754 0.40473517960888283
1.5208190248555309 13.060368803100808 328.602812107259 60.12639776732297 0.41171278405702866
1.5468042295523015 13.051871990293188 295.0664404132197 62.92479378272156 0.418903838450733
1.5725219472275205 13.04198042987017 265.26029475837225 65.8629135517308 0.42631972511971267
1.5979353584109854 13.030636143637205 238.72750015931743 68.94895871829698 0.43397272769448364
1.6230449141401246 13.017819781969184 215.0633074061542 72.19175170132223 0.4418761057327379
1.6477850167498274 13.003457770174982 193.93611209201973 75.60079280503787 0.45004417601843555
1.6721345035266242 12.98750890879463 175.10037988319667 79.18588694298273 0.4584905806830873
1.6960707904622283 12.96994860280189 158.23515418140573 82.95751504732088 0.46722978216515615
1.7195502106628808 12.950720057194399 143.16303844400912 86.92828986312897 0.4762827692817082
1.7401644489035288 12.930503890466582 130.85964411583944 91.3452560763515 0.9691175633836387
