M[M_sun], R[km], Lambda[1], P_c[MeV/fm^3], rho_c[fm^-3]
0.24162668629717493 15.618656898711224 2160425.4255784233 3.5677272577965504 0.1711233750220791
0.2536372156728486 15.277478564089837 1723306.6549484024 3.784706811604327 0.1738867671253593
0.2660261551245875 14.981595903369803 1383409.8678454766 4.011164374698882 0.1766637957903184
0.27879557868113725 14.723883376988356 1116815.1154417305 4.247359545133621 0.17945323820822237
0.2919426257886096 14.498811676882822 906203.7506008314 4.493915800526992 0.18226162957686032
0.3054705068349708 14.301671936255197 739065.8636806149 4.750980541053688 0.18508451551454477
0.31937710791710344 14.128669927335801 605472.4126397816 5.019249376324542 0.18792880783800697
0.3336680803432445 13.97644165062637 498051.0467089682 5.298928046859627 0.19079077175950002
0.3483393448421707 13.84248984021019 411297.29223235324 5.59076610236871 0.19367712845759272
0.3633922860217853 13.724502900501784 335986.19295532705 5.894904297933037 0.19658245165248917
0.3788368017203724 13.620518525392068 283567.36703632236 6.2122174286358325 0.19951464846638908
0.39465773652764313 13.528944118571651 236653.4808247107 6.542982895347188 0.20247025394881452
0.41087236422402995 13.448355486413773 198080.18375251204 6.887862881359375 0.205452301195004
0.4274695688219312 13.377511493869907 166277.6439569883 7.247579618445318 0.20846418350420884
0.44445243079480823 13.31535311933666 139978.0772059589 7.622420623234616 0.2115019065885693
0.46182113867557767 13.260971925409013 118127.87622636078 8.013277504271308 0.21457074872877302
0.4795750647675369 13.213518730419597 99957.970512455 8.42088040501202 0.2176727779096581
0.49771849495981707 13.172327027174317 84765.98221943561 8.845708769015333 0.22080602432997976
0.5162435378250769 13.136719635008621 72050.45902916885 9.288558304380153 0.2239728046490078
0.53514799492314 13.10612720177793 61373.58445136309 9.75034838763955 0.2271765610344941
0.5544424195919248 13.080073058734444 52388.98036904295 10.231886867314003 0.23041864163260964
0.5741082436102322 13.058058421251186 44804.02888681281 10.733699456218842 0.23369644486638452
0.5941561497414332 13.039732536658127 38394.19451441378 11.256921032052974 0.23701478709540838
0.614574204984494 13.024666399509028 32960.688350937526 11.802538743250198 0.24037594402386764
0.6353601670730687 13.012577668305601 28347.95217832865 12.37152935225386 0.2437815445774782
0.6565137158540404 13.003116213639306 24421.287737040868 12.964656239822345 0.24723038830040756
0.6780338949178122 12.996069783670613 21070.506470864493 13.58309612392758 0.2507255922870265
0.6999052156109992 12.991123666160048 18209.462802164377 14.228114894377631 0.25427059917364625
0.7221231876019251 12.988034667154896 15762.100825832156 14.900899311884302 0.25786738798701647
0.7446935160522647 12.986662424844132 13663.108375007294 15.602576191536704 0.26151684319924784
0.767597234181489 12.986737767767204 11861.649207405224 16.334215145145198 0.265218910628231
0.7908257698338717 12.98810584855734 10312.238207166329 17.097521823617946 0.26897922341836383
0.8143813848282455 12.990622977664849 8977.492612912603 17.89394741472519 0.272800206549635
0.8382470954247787 12.994070845065837 7825.298651855781 18.72497989012355 0.27668405696633736
0.862410568618302 12.998322017025972 6830.820116171413 19.591714554158145 0.28062904634871516
0.8868660943857225 13.003259916826918 5970.02186207411 20.49635077514425 0.2846426031195169
0.9116099046969636 13.008742932784587 5193.371154989398 21.4406775418503 0.28872773041914884
0.9366121293499539 13.014632758690006 4577.0879106175635 22.426334889880124 0.2928856232804507
0.9618720875430071 13.020810874695698 4014.8789980538727 23.455030196647087 0.29711755211277374
0.9873797076380473 13.027205419398186 3525.763107727205 24.52933054469314 0.3014308388139128
1.0131059827272622 13.033662310980585 3100.0836301938516 25.651362129532167 0.3058285035942416
1.0390491519653262 13.040115807385458 2728.8501506178573 26.82270963198386 0.31030904189588165
1.0651865906130482 13.04644871379806 2404.761267060523 28.046640762193743 0.3148825222686256
1.0914978488585232 13.052567386696284 2121.5610524528647 29.325425772953086 0.31955089694298694
1.11797836643618 13.058409032165086 1873.8248198745025 30.661377616610647 0.32431584432822463
1.1445928371802434 13.063865876871928 1656.8344509872284 32.05820220160469 0.3291875542393118
1.1713397236993308 13.068893118279258 1466.3620027782924 33.51777471022218 0.33416330698938485
1.1981837750194881 13.07336941535736 1299.2182977815758 35.04443321750076 0.33925543855716467
1.2251097035187835 13.07723998746499 1152.4388826591007 36.64062173967472 0.3444633576121271
1.252089625093782 13.080425966454596 1023.2559468878334 38.310823401261324 0.34979809124025313
1.2791167542386863 13.082886190560734 909.5363454915104 40.05783184057886 0.3552595656468519
1.3061462300404831 13.084493313678713 809.2336318093292 41.88684222231975 0.36086073437119554
1.3331692115666895 13.08522740208689 720.8155469561478 43.800960490170525 0.3666015124487897
1.3601647254101497 13.08505246449459 642.7056003321426 45.80555014091613 0.37249345195921524
1.3870845366839308 13.083828040386493 573.582949061657 47.90558708093262 0.37854457905369404
1.4139212645990282 13.081546014784236 512.5118035503216 50.10540247227368 0.3847584359518765
1.440649237044076 13.078167850893418 458.34551086619234 52.41099105771848 0.39114607436658483
1.4672231216130696 13.073578971867702 410.37517166070046 54.828355133737695 0.3977171036721592
1.4936299508756097 13.067763195409881 367.74662954647823 57.363659274687755 0.40448054247681353
1.5198334101943138 13.060667393126383 329.9304290919824 60.0235039003447 0.4114461159946089
1.545811487919216 13.052224103659313 296.28166962567036 62.814964489348824 0.4186243141672834
1.5715237558389181 13.042396246790418 266.36520020260656 65.74563454358037 0.426026454522529
1.596937362883281 13.031115301200451 239.72131111351723 68.82367268373883 0.4336647503230687
1.6220305697849762 13.01834986529593 215.96042285054463 72.05785430366059 0.4415523846287733
1.6467799295975103 13.004074104374222 194.76165104118684 75.45762826447368 0.44970359096919177
1.6711347627249367 12.98820650579929 175.8420639255583 79.03317917040228 0.4581337414074534
1.6950654175773292 12.97072204899276 158.91595277349109 82.79440017781221 0.46685494467009275
1.7185543490754198 12.951580815616877 143.77654140770812 86.75361759044141 0.4758872225244641
1.7415541460097144 12.930735208532862 130.2404752645524 90.92334673517705 0.48524884434092175
1.7640368905171557 12.908151555469166 118.09393439589076 95.3162686562452 0.4949562613498793
1.7859689581062508 12.883786325836878 107.20162383822837 99.94737738923479 0.5050323769409588
1.8073046622092372 12.857582166502503 97.4277662584904 104.83243497694474 0.5155000562889894
1.8280504393693195 12.829584326163047 88.64402776244434 109.98721779542112 0.5263791785345246
1.8481366202786285 12.799681725473391 80.74846009048639 115.43050201193627 0.5376976314494533
1.8675384334092673 12.767867238712991 73.64562000723568 121.18194279178259 0.5494828744304645
1.8862281031708983 12.73411466771089 67.24493373187403 127.26274898674524 0.5617641646016636
1.9041595069352653 12.698360305579536 61.4740084185416 133.69603735931622 0.5745734439485213
1.9213253608029894 12.660650126617712 56.26990097735173 140.50588124222514 0.5879415753486373
1.937674176271363 12.620895486855861 51.57276523188254 147.72038724588037 0.6019086961740804
1.9531923536155875 12.57913763055585 47.33355480007521 155.36899533339613 0.6165141303216026
1.9678502362877424 12.535358581429861 43.49115047804376 163.48336469751177 0.6317990200656944
1.9815953258078818 12.489463832945615 40.018266728127294 172.09859618155133 0.6478098588756429
1.994428377662097 12.441537392153823 36.86965347303332 181.2532600679165 0.6645978053991899
2.006283216648527 12.391441356380035 34.02253113767807 190.98894653071204 0.6822163897577953
2.017168777236009 12.339287765494952 31.436241500970308 201.3514154868776 0.7007244866877307
2.027047446344249 12.285033256501038 29.091289735848594 212.39105926629296 0.7201868268176991
2.0359043047922873 12.228701076298297 26.962010642110634 224.1620017275997 0.7406699349508663
2.043693652857319 12.170237854563021 25.024684007669133 236.72587832713376 0.7622532507105223
2.050400702671199 12.109664627133153 23.26554229020033 250.14789446951488 0.785014800773373
2.0560171772503963 12.047022604953876 21.663750901203024 264.5022666738611 0.8090473401742546
2.060514153566081 11.98231222153499 20.207405242642135 279.8697250881499 0.834448355093213
2.063880560436428 11.915570584522273 18.881341720009875 296.33976963546326 0.8613253042594098
2.0660968359749656 11.846799667451949 17.673684701005957 314.01034409123656 0.8897921065858975
2.067147447706359 11.776043600112812 16.574409203460476 332.9925591856023 0.919981831113944
