M[M_sun], R[km], Lambda[1], P_c[MeV/fm^3], rho_c[fm^-3]
0.24162668629717493 15.618656898711224 2160425.4255784233 3.5677272577965504 0.1711233750220791
0.25364367557157147 15.277278561704085 1723196.8426688388 3.784813683401187 0.1738880992307505
0.2660380260537422 14.98129637494633 1353190.0477251876 4.011389035794929 0.17666651068707823
0.27881398166909177 14.723525793755528 1116441.1379316088 4.247709591273772 0.17945729821593984
0.2919675155767903 14.498448874095605 905931.8936402309 4.494400412129988 0.18226702583953217
0.3055040037249227 14.30120654666185 738678.6194533465 4.751616167056644 0.18509138148848717
0.31941885229399 14.128166627258544 605145.9973860434 5.020040693573415 0.18793701805988444
0.3337161454907276 13.976031876076597 497727.91810862214 5.299895881614163 0.1908005162495499
0.3483967265623563 13.84206273783181 411027.38245017396 5.591912865585108 0.19368822370717506
0.3634588680923674 13.72402235052494 340704.1446977837 5.896255744930023 0.19659514472868153
0.3789117605575659 13.620027072342529 283319.1185737014 6.213789905779023 0.19952898756454926
0.39474345462162347 13.528485776313232 236416.4414228157 6.544774764543197 0.20248596622096682
0.41096697192622506 13.44791404782288 197881.98792810613 6.889908723493258 0.2054697244451205
0.42757493227365123 13.377095489551063 166092.69191374572 7.249898621677076 0.20848336802363557
0.44456949339420576 13.31495034365389 139812.89894545535 7.625006373055209 0.2115224908197729
0.46194793391975963 13.260612779273401 117988.95304852544 8.01617508766461 0.21459316387891578
0.4797138324901736 13.213173829344216 99827.60640040308 8.42411240510807 0.21769707803212715
0.4978697175736039 13.172003981380596 84649.64827266295 8.849263264807213 0.22083176039823216
0.5164067193720415 13.136426763887414 71943.69138889352 9.292492799298474 0.22400050373851993
0.5353238769295181 13.105867641769363 61282.334075695755 9.754689544387075 0.22720628289149583
0.5546292105382555 13.079832007998522 52307.72315431545 10.236662968100186 0.23045044860068264
0.5743116324486729 13.057854490656386 44734.73339139357 10.73888974684384 0.23372976813994784
0.5943661839451428 13.039550273238675 37998.241153871844 11.262603538987678 0.23705029150156878
0.6148035404639645 13.024514820926298 32905.671101404834 11.808747017725768 0.24041370069095636
0.6356033694053959 13.012455725737214 28297.38957124267 12.378299037898314 0.24382162838850976
0.6567751166152297 13.003026887310586 24374.59459257757 12.971956250378376 0.24727211216723563
0.6783064517861948 12.995986372860255 21030.909574066667 13.591030081278962 0.25076976643592463
0.7001969892014531 12.99104622897018 18175.391260184235 14.236725315389046 0.25431731112786493
0.7224257005631234 12.987999029967616 15732.104232169471 14.910231444220026 0.2579167304884493
0.7450131936672654 12.986653763642979 13636.20532182543 15.6125871689698 0.2615680126753421
0.7679327218523195 12.986760344635892 11756.874587445589 16.34504048095833 0.2652728722121715
0.7911753970053536 12.988134309275278 10290.504465686767 17.109215816919004 0.2690360873478685
0.8147489936649841 12.990666124975705 8957.618548035249 17.906567963295725 0.2728600901501897
0.8386301233295892 12.994119640747671 7808.959443563775 18.738471029037598 0.27674604176914464
0.8628093593295149 12.998395283067687 6815.703827950083 19.606251622357302 0.2806942650056756
0.8872852797800247 13.00333581890035 5956.411115414736 20.512003698119543 0.2847111966550187
0.912041457683387 13.008840135103599 5211.943365182977 21.45752103169521 0.28879984936500924
0.9370618020176602 13.014728754107422 4566.047842688016 22.444298802967765 0.29296023514831565
0.9623393507980238 13.02093309563816 4005.1519548232795 23.47433985815541 0.2971959743856185
0.98786286409861 13.027327215498119 3517.1397415394404 24.55007678823297 0.30151325379079236
1.0136040724369346 13.033782494631424 3092.4931245263965 25.673464676167974 0.30591380157841935
1.0395668948752619 13.040233856308825 2721.9888108012146 26.84643855122441 0.3103986854799167
1.0657163611537828 13.046561395389352 2398.8102348569473 28.072107058946607 0.314976733173909
1.0920464466971216 13.052688265763024 2116.065074999118 29.352539224594643 0.31964848872115237
1.1185435437244615 13.058528752629215 1868.962858982292 30.690461754430252 0.32441844050898844
1.1451733247572506 13.063983028583486 1652.4495295579852 32.08930409251961 0.3292948479069749
1.1719350886836748 13.069004203053565 1462.3558594595347 33.550973400778055 0.3342751899994864
1.1987896599534664 13.073454645232061 1295.6880058514596 35.08002724736122 0.3393731383643499
1.2257352999689561 13.077327935791198 1149.323074542743 36.678507864686594 0.3445855723867693
1.2527291151839681 13.080486537573716 1020.368399443683 38.351437261186746 0.3499267470450535
1.279769924198369 13.082935623496281 906.8948349501529 40.101067614278406 0.35539332268653956
1.306813267961734 13.08452333202283 806.9339942408419 41.932878521329265 0.36099990907757
1.3338494167121964 13.085239671238227 718.7478293829779 43.85031313213615 0.3667482140240184
1.3608562107363258 13.085036660803375 640.7590889398749 45.85811577028799 0.3726463056689276
1.3877853627574672 13.08378088061798 571.9355949954409 47.9615900798766 0.37870398166685004
1.4146420350344882 13.081492144105916 510.92829921079675 50.165456522806856 0.38492671401956363
1.4413636860567183 13.078040098056556 456.9629633478074 52.475000880289535 0.3913218213569569
1.4679577015757057 13.073446129437912 409.1060223210129 54.896603970410304 0.3979008172661962
1.4943667368675126 13.067582747760657 366.6161757558689 57.436453301343825 0.40467275881316783
1.5205781049030158 13.060440833489768 328.91510206199746 60.101174279096846 0.4116474128261646
1.546560760212583 13.051961111139994 295.3576306958894 62.897869625656185 0.4188353143304362
1.5722771157123396 13.042084625638237 265.53305670516613 65.8341625708495 0.4262478297527101
1.597700542379147 13.030759073992323 238.98332783536026 68.91824420096997 0.4338972254539984
1.622787282551704 13.017945734600222 215.28372817713662 72.15892539483502 0.4417967422173843
1.6475408358829462 13.003609713498665 194.14386750527322 75.5656938319381 0.44996067639321774
1.6718884130914216 12.987678644861143 175.27251278769958 79.14852390547546 0.4584034131440437
1.6958258887180118 12.970137731613285 158.40048675026748 82.91752335799943 0.46713788137957013
1.7192912621715528 12.950898597597488 143.32103110677778 86.88546362576267 0.4761857889249832
1.742292633052433 12.929997579378195 129.81125534189934 91.06397052414398 0.4855616805096171
1.7647729295955494 12.907355672842826 117.70706707779718 95.46702377885269 0.4952870517508633
1.7867011260448185 12.882928045841966 106.84828322068478 100.108395078418 0.5053798461286615
1.808039761864998 12.856678560300175 97.10642583730052 105.00454956058623 0.5158655419681184
1.8287521566635927 12.828551084487167 88.35220224352537 110.17202119931507 0.5267666663937847
1.8488319537702966 12.798593199703175 80.48473037453418 115.62837530070559 0.5381063693832281
1.8682200907747262 12.766692436169429 73.40089912344777 121.39392768369491 0.5499143979866017
1.8868911222793594 12.732851726748244 67.02562040995274 127.4900346715642 0.5622203251575509
1.904815521671001 12.697045525900126 61.27169590250823 133.93918908257857 0.5750536544698442
1.9219597061192417 12.659237444850252 56.088879775598855 140.76693080583658 0.5884501991706842
1.9382748047676706 12.619359595276483 51.405385882074 148.00099522539116 0.6024484595837869
1.9537751559124865 12.577525561810557 47.17504228235977 155.66995394673762 0.6170844770202666
1.968393357152885 12.533608185668232 43.349893058744875 163.80735522500268 0.6324055410672492
1.9821118758065326 12.487618359195391 39.88930355431924 172.44687292950115 0.6484529138109404
1.9949055187353275 12.439552216345755 36.755405204210916 181.62794365670217 0.6652802967514451
2.0067437821903082 12.389402687353659 33.91097638841245 191.3924678921044 0.6829418049486812
2.017596039812589 12.337140191857893 31.335792957158834 201.78645608129247 0.701496640829601
2.0274344864920755 12.282767417510156 28.99846283018717 212.85992217689923 0.7210077433641099
2.0362491066724147 12.22631271195993 26.876304921479292 224.66814274886443 0.7415448117556313
2.0439986786012274 12.16773073147046 24.948569342550023 237.2724333026576 0.7631855414520912
2.050662057706372 12.107038067477598 23.19278597868978 250.73952245824475 0.7860121518314308
2.0562393249214272 12.044304932022124 21.598183228144872 265.14242105223167 0.8101125942520487
2.060692518627693 11.979466340926194 20.146588355556496 280.5630473802471 0.8355872325461557
2.0640022445955934 11.912583895186689 18.82562186090429 297.09082989596254 0.8625421564572334
2.066168585155506 11.843696517537323 17.62257229812561 314.8261922909949 0.8910981190887197
2.067166348495098 11.772817390491577 16.527057769621887 333.87857105369426 0.9213812160854666
