M[M_sun], R[km], Lambda[1], P_c[MeV/fm^3], rho_c[fm^-3]
0.24162668629717493 15.618656898711224 2160425.4255784233 3.5677272577965504 0.1711233750220791
0.2536466330094553 15.277238235887598 1723057.7286416804 3.7848748153753866 0.17388886121131786
0.26604580074337686 14.981141311199158 1382787.7863198158 4.011517548735006 0.17666806369011592
0.27882409062041263 14.72340475630389 1116287.491652812 4.247909834341128 0.1794596207337613
0.29198287674951406 14.498201036814946 905685.4266295435 4.494677641270377 0.1822701128503519
0.30552215224201856 14.300996186467806 738478.6015393401 4.75197979711871 0.18509530938715588
0.3194420686080832 14.127905076787199 604923.6993047144 5.0204934046287635 0.1879417151118141
0.33374442161012813 13.975684943718429 497522.393924379 5.3004495942157295 0.19080609121667233
0.348429611973049 13.841786102122192 410857.00680768717 5.592568963736266 0.1936945716372739
0.36349824569130035 13.723693812821883 340498.7420861806 5.89702897104387 0.19660240703197487
0.37895404439149577 13.619824195935108 283176.09234487964 6.214689619160803 0.19953719186726565
0.39479182085581294 13.528224002185471 236297.90755097725 6.545800032572816 0.20249495643651733
0.41102234542991073 13.447636359533897 197761.50791733808 6.8910793418523815 0.2054796939222977
0.4276350759257182 13.37684536861667 165986.19987664535 7.251225577896975 0.20849434559237306
0.44463587498960183 13.314725846056017 139717.0766028455 7.626486000960754 0.21153426960929864
0.4620208598681787 13.260374467824615 117907.93179768528 8.017833199366615 0.21460599071345654
0.4797929071337973 13.212992380212985 99742.78367446565 8.425961933410083 0.21771098389936513
0.49795581399392375 13.171828538459987 84587.92489284217 8.851297391358314 0.22084648834357753
0.5164998857505719 13.136264538966081 71890.09554796382 9.29474444768348 0.22401635548352428
0.5354251454573772 13.105716007173536 61235.52097670027 9.757173985081554 0.22722329268758132
0.5547386653961494 13.079690531926367 52264.74130815044 10.239379879646718 0.23046843978084416
0.5744278109012648 13.057731110511126 44695.29519981357 10.741860293055407 0.23374883996678614
0.5944908825809062 13.039423462711783 38295.96578854517 11.265855879873026 0.23707061218627576
0.614934231039849 13.024430233770854 32872.40709729977 11.812300371333084 0.24043531100952842
0.6357458370051743 13.0123734892946 28267.486888886982 12.382173821444377 0.24384457126940645
0.6569235562063745 13.002976607354801 24349.495273417695 12.976134669929813 0.24729599429995006
0.6784621056433858 12.995937453336275 21009.499979127235 13.595571481664049 0.25079505173655486
0.7003592520761683 12.991032440923435 18155.609497787525 14.24165405303719 0.25434404977015324
0.722600498515811 12.98798508420401 15713.794153567882 14.915573440765323 0.25794497563786517
0.7451953825694152 12.986637312126645 13620.528757488015 15.618317881565144 0.26159730427679756
0.7681231541088721 12.986768727479816 11823.68030219705 16.35123752988353 0.26530376294679003
0.7913760650149971 12.988145982292187 10209.252597583925 17.115910311958874 0.26906864041030115
0.8149598737417209 12.990686435144237 8946.695092019372 17.913793077111894 0.27289437279862705
0.838849482055692 12.994154187855596 7799.056036869962 18.74619471227589 0.27678152809728357
0.8630381268406773 12.998430906900325 6806.771905720097 19.614574321659077 0.2807316037085909
0.8875259571958728 13.003398207762016 5948.54480227403 20.520965481071762 0.2847504685774617
0.9122907300943892 13.008892950916005 5205.158451728876 21.46716471006636 0.2888411408031107
0.9373190737941853 13.014795607634227 4560.36264499826 22.45458419964277 0.29300295483048683
0.9626102866175235 13.021008482864572 3999.8155647886633 23.48539607496531 0.29724087696720564
0.9881395169673753 13.027389710332454 3512.4725402279723 24.561955879884223 0.3015604437826532
1.013889745174519 13.03385154294537 3087.989190110028 25.68612065357021 0.3059626434326182
1.0398615699564422 13.040315166651913 2718.1836183844835 26.86002617076478 0.3104500170598238
1.0660209918054746 13.046643311419512 2395.2701607484832 28.086689941350688 0.31503068159704495
1.092361149573376 13.052759304863985 2113.049830129068 29.36806567701956 0.3197043744165917
1.1188668693353834 13.058598540273891 1865.9692077490336 30.707117190262874 0.3244771936381333
1.145505708381974 13.064052638975143 1649.8510521924716 32.10703414225795 0.32935576661153615
1.1722759177679496 13.06906088653536 1460.1566798986933 33.56998608585664 0.3343392647084911
1.1991387865619616 13.073505418890983 1293.7591544624213 35.100401564469664 0.3394404800537392
1.2260922250668047 13.07737131683867 1147.4478801723599 36.70020617537536 0.3446555677782249
1.2530947422891063 13.08052427537081 1018.7354411252373 38.37454896981322 0.3499995564520545
1.280144263921381 13.082962382542606 905.4486759551012 40.12583116001895 0.35546993282409467
1.3072001290693722 13.084561143260082 805.5854512613846 41.95924674791117 0.3610796242212959
1.3342447229210628 13.085262599895415 717.5057258723109 43.8785817493281 0.36683224297376515
1.3612511000943595 13.085023021029532 639.7088166440175 45.888225532747555 0.372733860768058
1.388194686590317 13.083767075621843 570.9470631233552 47.99366962900538 0.3787952904191743
1.4150420410459317 13.081434231596553 510.0994769587199 50.19985771889611 0.3850231099620959
1.4417773158060287 13.077979244570875 456.18950349868044 52.51166909929983 0.39142249854796474
1.468376121339125 13.073366686813369 408.39907457519286 54.935701619645066 0.3980060611063773
1.494788923133518 13.06747866704704 365.97140869985293 57.47815594550119 0.40478287676987995
1.5210031423959458 13.06031205629653 328.3539239825387 60.14567181850782 0.4117627362459723
1.546988026068644 13.051808166146603 294.8466106885652 62.945367592109456 0.41895620043131554
1.5578975237594865 13.039505769176495 280.1111696944 67.13105858723954 2.3458358375369066
