M[M_sun], R[km], Lambda[1], P_c[MeV/fm^3], rho_c[fm^-3]
0.24162668629717493 15.618656898711224 2160425.4255784233 3.5677272577965504 0.1711233750220791
0.25364499433519777 15.277269518995933 1723284.5286804284 3.78483849501368 0.1738884084955307
0.2660417775498722 14.981238760247049 1382969.051801109 4.0114411949408355 0.17666714099957428
0.2788175542477528 14.723484731185579 1116303.465024238 4.247790862768136 0.17945824084280093
0.29197365587698254 14.498349164757979 905786.7950337164 4.494512928794977 0.18226827873871057
0.3055106915491561 14.30114194252725 738605.0646556076 4.751763749579647 0.18509297566140107
0.31942864782709096 14.12804880169858 605041.9808990823 5.020224429287726 0.1879389243888359
0.33372613303962995 13.975903467536051 497646.16663175955 5.3001206080364875 0.19080277887173416
0.3484099455115802 13.841906013364113 410949.6513088595 5.592179144009724 0.1936908000241839
0.36347388222501925 13.723916157693685 340624.3100372879 5.896569557972254 0.1965980921271841
0.37892770463604597 13.619954931510094 283263.6635699906 6.2141550513081505 0.19953231725211107
0.39476311461562513 13.52838019950751 236375.8938065377 6.545190863651702 0.20248961484802605
0.4109895015701825 13.447824537132217 197836.2371303334 6.8903838093313645 0.20547377047547982
0.42759927645615536 13.376984801666424 166049.33223023955 7.250437152725822 0.20848782315298817
0.44459567039135 13.314888292242548 139778.2752501693 7.625606861061721 0.21152727109041725
0.4619792469437423 13.260527180706731 117959.6535425132 8.016848007067038 0.21459836945452554
0.4797474854774867 13.2130785384154 99793.39296023652 8.424863003623905 0.21770272148364872
0.49790552888041945 13.171927425774669 84625.79658620399 8.85008877502098 0.2208377374448932
0.5164449590467896 13.13636001244943 71926.40428140468 9.293406581179411 0.2240069368199294
0.5353658200553849 13.105799898796956 61263.97756016768 9.7556977940822 0.2272131859026063
0.554673487644009 13.079773472998406 52291.6912151991 10.237771534629074 0.23045782673576337
0.5743588269112195 13.057819922217615 44719.13538455512 10.740095257726667 0.2337375078932361
0.5944175481524018 13.039496570858601 38319.5994749916 11.263923400623879 0.23705853802095636
0.6148568231395037 13.024503739014726 32892.845423627194 11.810189027825432 0.24042247051830304
0.6356631722081972 13.012414134205809 28284.107347932604 12.379871480676359 0.2438309389388785
0.6568358436204589 13.002998704556783 24364.11399475636 12.973651904889323 0.24728180383308435
0.6783695076830258 12.995967209991937 21022.082228494462 13.592873027479095 0.25078002746661215
0.7002599683396284 12.991058724378787 18166.57908467715 14.238725435629298 0.2543281618777842
0.7224979110367259 12.987987234827772 15724.5833744803 14.912399255843379 0.2579281925256648
0.7450874750744066 12.986650853208754 13630.098718647328 15.614912712784628 0.2615798993127293
0.7680098396008614 12.986762284065295 11832.728915861495 16.34755525145771 0.2652854077123847
0.7912572345064747 12.988149167546517 10286.774270562679 17.11193243622646 0.26904929734763616
0.8148346973041987 12.99067523126762 8953.401590173788 17.909499890408018 0.2728740019346947
0.83871913281994 12.994144671295752 7805.114292016034 18.741605259319513 0.27676044193559574
0.862902849816882 12.998417046028088 6812.000349138131 19.609628910824203 0.28070941676908223
0.8873863012229684 13.003361680530917 5953.406733268713 20.5156403008977 0.28472713281225676
0.9121442635483571 13.008861332407355 5209.3305121389785 21.46143431814743 0.2888166049243608
0.9371646077576469 13.014761619854983 4563.593894708081 22.4484724711727 0.29297757018991266
0.962452429757376 13.020961637563797 4003.0914776899644 23.47882628791436 0.29721419510991776
0.9879755256420077 13.027353645847361 3515.3489804325336 24.554897098471223 0.3015324025950602
1.0137199150198797 13.033811756480942 3090.6552463614676 25.6786002073294 0.30593362058221873
1.0396879988362286 13.0402609393873 2720.4147618165725 26.85195209022276 0.31041951463743206
1.0658402820371098 13.046589163332893 2397.308995291096 28.078024416561508 0.3149986240527908
1.092175452420896 13.05272468365248 2114.8146165141998 29.35883942768141 0.31967116558392034
1.1186756372999342 13.05855134044482 1867.6395034458155 30.697220025952813 0.3244422807497093
1.1453081456468406 13.064017414534916 1651.4084739834946 32.09649837378975 0.32931956674881085
1.172073939195202 13.069025685857792 1461.4065285543418 33.55868808546777 0.33430118928230806
1.198931568338156 13.0734760961029 1294.8987046052796 35.08829874999404 0.3394004899811472
1.2258802694148005 13.077345669720803 1148.582705151655 36.687312180714926 0.3446139737473979
1.2528774556899667 13.080505755046913 1019.7020975388184 38.36082221295703 0.34995633221065114
1.2799218962064356 13.082939393973028 906.2845026194213 40.11111556201128 0.3554244076800226
1.3069684980972072 13.084526592644044 806.4176747610236 41.943577519095214 0.3610322537687075
1.334007149771058 13.08523894057741 718.2870413942932 43.8617831419436 0.3667823088250184
1.3610162469769846 13.085028803957535 640.3371351374562 45.87033275720238 0.37268183100732244
1.3879493371838074 13.083767192091953 571.5519661308643 47.974606229877246 0.3787410298314565
1.4147998721918766 13.081455417032473 510.5795679917348 50.17941457267511 0.3849658260135033
1.4415317401107768 13.078017631983844 456.66884255508813 52.48987867058494 0.3913626701948818
1.468127728350029 13.073411922855817 408.82387134874557 54.91246738311369 0.39794351872022116
1.4945378314645794 13.06754117843674 366.3467792801967 57.453373555197906 0.4047174376055828
1.5207508378276304 13.06039160237057 328.6937669917158 60.11922840744533 0.411694203364481
1.5467348453005985 13.05189725178834 295.14780959239914 62.917141001964005 0.41888436151528197
1.572452064713615 13.042010538505014 265.3378323542728 65.85474148721546 0.426299289866393
1.5978656561046454 13.030670783175694 238.7939457108367 68.94022850558736 0.43395126713847126
1.6229640280459448 13.017847825073446 215.13062437467667 72.18242119508923 0.4418535475513912
1.6477162793665938 13.003499542353813 193.99005546985086 75.59081627065862 0.45002044207957437
1.6720640437225227 12.98755944350958 175.14202109426046 79.17526682684299 0.4584658040736353
1.6960016221614755 12.969997714972092 158.28905227396925 82.94614770205305 0.46720366003883773
1.7194814195856527 12.950780454122329 143.20928715083969 86.91611675479119 0.4762552031806064
1.7424616382400708 12.929827449483868 129.7180757002723 91.09666519684151 0.48563441412189273
1.7649448165907162 12.907173387205518 117.61413987126484 95.50207498109437 0.49536396191513465
1.7868704453265183 12.88273246068621 106.76844791353028 100.14583333109823 0.5054606362537328
1.8082075828449984 12.85646227603865 97.03662817589323 105.0445690149969 0.5159505233634435
1.8289203072221367 12.828327843912385 88.28930644867856 110.21483362840578 0.5268561757945749
1.8489936272756546 12.798337695911867 80.42345571575005 115.67438682116213 0.5382014133071362
1.8683668560953246 12.766390770065998 73.3451141819748 121.44322201550524 0.5500147431818102
1.8870430368712128 12.73256129110349 66.9738750710688 127.54278023590594 0.5623260154637413
1.9049642236634468 12.696732447480182 61.226486331283745 133.99571115807916 0.5751652465968311
1.9221036022886133 12.65890314227709 56.04409711404267 140.8276399233853 0.5885684836181797
1.9384151588324643 12.619002259162702 51.3650731519627 148.06625497150912 0.6025739899523197
1.9539084299726521 12.577144488230731 47.14076898038718 155.73994869158372 0.6172171240683227
1.9685213486258553 12.533204770924536 43.32069518422523 163.88250916939776 0.632545929259952
1.9822327529149968 12.487190660057689 39.86055758333785 172.52787812082317 0.6486024810397921
1.995016342702497 12.439099119006027 36.726092608386665 181.71509376681655 0.6654390418854231
2.0068493955293216 12.388926139364328 33.88536532519323 191.48632891153005 0.6831105400289963
2.0176920736928516 12.336638004477328 31.311549742726303 201.8876523667303 0.7016762542540627
2.0275250806969436 12.282242990052602 28.977725917923653 212.96888799580654 0.7211983725450704
2.036329525358319 12.225758538167655 26.856957262954015 224.78588677507236 0.7417483351080194
2.0440689353171573 12.167151028074384 24.9305536235766 237.39952920187258 0.7634022516354809
2.0507230837437285 12.10642842056429 23.177057079527188 250.87689824345006 0.7862433182072707
2.0562899986702527 12.043666199386172 21.583921700572535 265.29132091723636 0.8103603116294267
2.0607311381989906 11.978801362387992 20.132269151498814 280.7241232562934 0.8358514344729535
2.064030118947777 11.911891297098737 18.81303311803164 297.26558600915655 0.862825292673603
2.066185530952945 11.84297450718858 17.61079523445668 315.01603207871216 0.8914020152502425
2.0671721573423745 11.772069423793845 16.516537475657845 334.0847467219305 0.9217068540842497
