M[M_sun], R[km], Lambda[1], P_c[MeV/fm^3], rho_c[fm^-3]
0.24162668629717493 15.618656898711224 2160425.4255784233 3.5677272577965504 0.1711233750220791
0.25364480385850285 15.277271131136976 1723198.050408523 3.784834980639162 0.17388836469054772
0.26604099003883513 14.981257898767101 1382944.616793091 4.011433806968558 0.1766670517202894
0.27881760245373993 14.723470398630736 1116410.000479817 4.247779351194224 0.17945810732589113
0.29197288508188274 14.498369147982098 888644.9411848973 4.494496991487776 0.18226810127309603
0.30550920186982244 14.301164162849243 738623.9866591047 4.751742845325423 0.1850927498555591
0.31942726592634185 14.128066396062374 605037.2951672863 5.020198404038646 0.18793865436683185
0.3337272759873077 13.975856785869956 497643.4877544197 5.3000887765394795 0.1908024583813773
0.34840818577577043 13.841966984011318 410969.14937668014 5.59214142672598 0.193690435099088
0.36347190026999293 13.72391623416532 335707.1291343414 5.896525107436908 0.19659767463834937
0.3789265745830352 13.619973764069535 283271.7486863691 6.2141033295167105 0.19953184561165022
0.39476034963564616 13.528415945324165 236384.99757152048 6.545131924241465 0.2024890980290215
0.4109863781447374 13.447813944864176 197836.27762215346 6.890316514358999 0.20547319736325592
0.42759554539545946 13.377008324371452 166059.71451317845 7.250360870596609 0.2084871920904826
0.44459148152077893 13.314903426936676 139780.89426296798 7.62552180255338 0.2115265939699984
0.46197498453977637 13.260521278570994 117960.48207011797 8.016752688396789 0.2145976320875493
0.47974102116679057 13.213111048321737 99790.68354477796 8.424756681383657 0.21770192208903782
0.497899094214086 13.171950248375992 84629.27438149108 8.84997184118946 0.22083689079399102
0.5164397677217529 13.136361054158373 71927.83539551379 9.293277143194096 0.22400602556844326
0.5353595690873536 13.105810858062819 61263.959982043525 9.755554974167234 0.22721220808186945
0.554667511804412 13.079810353283342 52295.15539992 10.237615125316664 0.23045678959630667
0.574352288054089 13.057826973057507 44721.42906979875 10.739924494430962 0.23373641153998184
0.5944110212889888 13.039496171001998 38320.52018673423 11.263736438664989 0.2370573698792539
0.6148499642399916 13.024478004316896 32894.646742730314 11.80998476252559 0.24042122824447085
0.6356555492513758 13.01241487684989 28286.0462270271 12.379648738431376 0.2438296200655178
0.6568273778602304 13.003002712403156 24365.643664735635 12.973411708579748 0.24728043096947594
0.6783604029234369 12.995977358579553 21022.946581961798 13.592611965840058 0.2507785739453486
0.7002511470682523 12.991049729708527 18168.423688498657 14.238442108637203 0.25432662481502427
0.7224867638403262 12.988005591814298 15725.233639649896 14.912092173509908 0.25792656886561216
0.7450765063459994 12.986639252199273 13630.802215381656 15.614583285919315 0.26157821550111127
0.7679985797080622 12.98675991329167 11833.587437207332 16.347199018341513 0.2652836319796468
0.7912466867737057 12.988140323338516 10217.625418785949 17.111547608667664 0.2690474260615313
0.8148225600295139 12.990673245753381 8953.725336339134 17.90908456164609 0.2728720312294168
0.8387065438603105 12.994131716628779 7805.614698041861 18.741161271629 0.27675840204188323
0.8628889728724016 12.998417316177477 6812.289769585531 19.60915049047168 0.28070727039868437
0.8873710375399139 13.00336355630037 5953.681632158457 20.515125144821816 0.284724875318456
0.912124607207584 13.008875200499302 5209.533615272891 21.460879965560387 0.28881423134711637
0.9371514498851423 13.014746260723769 4563.998181390247 22.44788123151101 0.2929751145169588
0.9624371915797039 13.020967626049435 4003.329021893124 23.478190740427305 0.29721161396273327
0.9879578900292765 13.027356705494658 3515.458749975786 24.554214251119365 0.3015296899666941
1.0137030344058848 13.033805569494374 3090.935927318746 25.67787270359557 0.3059308130052006
1.0396701703998705 13.040259667449112 2720.6077380564875 26.851171034829104 0.3104165639507991
1.0658225759138091 13.046585686249855 2397.43250232404 28.077186152700776 0.3149955229502649
1.0921563303080795 13.052721028827957 2114.988530862163 29.35794692665393 0.31966795312821983
1.1186569005070282 13.058549919637848 1867.8232216850263 30.69626263045391 0.3244389034750493
1.1452908563480373 13.064005612862365 1651.5957316725658 32.095479208947715 0.32931606499879734
1.1720545917540564 13.069018038560102 1461.5651137497289 33.557595194584735 0.33429750612735043
1.1989120320616022 13.073472773866564 1294.996948299123 35.08712697383667 0.33939661523506404
1.2258595022253531 13.077339995990837 1148.6686976003862 36.68606492014887 0.3446099502778836
1.2528566478652823 13.080498876123544 1019.8094760728468 38.35949440540748 0.34995215107197
1.2799004649564845 13.082939560185137 906.4055977665671 40.109692112849004 0.35542000400385815
1.3069463649833355 13.084526470092108 806.5172961693708 41.9420618336643 0.36102767162202454
1.3339840757342285 13.085238092458761 718.3591880357216 43.860158223762845 0.3667774787278394
1.3609934602075011 13.085030908016652 640.379982365565 45.868602011545406 0.372676798234056
1.3879268228446267 13.083771160138989 571.5973868960101 47.97276226286996 0.37873578130610824
1.4147761259603335 13.081463561351125 510.6274888150389 50.17743716071788 0.38496028508728386
1.441508045546112 13.078020117740733 456.71988730348744 52.48777095328911 0.39135688319288087
1.4681038236515171 13.073417575783495 408.8665310186318 54.910220025961905 0.3979374692389469
1.494513919353341 13.06754790596134 366.4004981100904 57.45097646747695 0.40471110797332027
1.5207260332720776 13.060398660185829 328.7288271431304 60.1166706745332 0.4116875745371282
1.5467105359994393 13.051906880797562 295.18161692907495 62.91441081085952 0.41887741296186126
1.5724267783273909 13.042021286521997 265.3658742061412 65.85182604455764 0.4262919994431297
1.5978404187035704 13.030682422633808 238.81906153582764 68.93711394732082 0.43394361095020234
1.6229383969647815 13.017860146347395 215.15716117535644 72.17909248682774 0.441845499798918
1.6476905097763825 13.003515639347558 194.0205493019197 75.58725709768021 0.45001197489140515
1.6720393928933688 12.987578801478728 175.16716301866205 79.17147806165794 0.45845696492780486
1.6959761512199554 12.970017388396542 158.30244151700833 82.94209237127336 0.46719434090051704
1.7194567196027755 12.950801399221222 143.2240662545309 86.91177397809227 0.4762453689280701
1.74243279136324 12.929826081601785 129.7382940586929 91.09203316674575 0.48562410955991864
1.7649206300104066 12.907198942711307 117.63325011042657 95.49710906539359 0.49535306558725206
1.7868467532370405 12.882759167935694 106.78383374618689 100.14052920551283 0.5054491901808325
1.8081840220333165 12.85649214829852 97.04919508239972 105.03889916912017 0.5159384834338399
1.8288976558362053 12.828359461263375 88.29886352869096 110.20876805470333 0.5268434942934527
1.8454512959154226 12.799489057470016 81.4966256235802 116.05439814924917 0.960732476837205
1.8498215910912985 12.765371663088539 78.16879544851416 123.59206109898768 1.5145303504267271
