M[M_sun], R[km], Lambda[1], P_c[MeV/fm^3], rho_c[fm^-3]
0.24162668629717493 15.618656898711224 2160425.4255784233 3.5677272577965504 0.1711233750220791
0.25364441979485847 15.277262473404004 1723023.7787798874 3.784828114922715 0.17388827911270435
0.26604088777395135 14.981239431949088 1382902.8088203464 4.011419373781745 0.17666687730374464
0.2788168527325261 14.723475034144705 1116366.384918358 4.2477568621569 0.17945784648694843
0.29197092188507956 14.498390254857606 905813.3844569607 4.494465856384708 0.1822677545764973
0.30550753812285036 14.30118837069968 738625.6264794383 4.751702006876829 0.18509230872237292
0.3194234310177034 14.128135566287689 605074.2028283237 5.020147561328891 0.18793812685409467
0.3337231744232582 13.975900035861178 497668.8459970168 5.300026590904725 0.19080183227521993
0.3484044903709012 13.84199820574383 410988.5939011879 5.592067742812505 0.19368972218695538
0.3634681998741714 13.723940771875364 340645.9593708288 5.896438269698925 0.19659685903993743
0.3789222275462999 13.619970212641386 283294.7935802715 6.2140022869656155 0.19953092422524737
0.39475476494138984 13.528412451401037 233275.05131524598 6.54501678169419 0.20248808838443186
0.41098019560375176 13.447863605454467 197858.30485421282 6.890185048822294 0.20547207774757797
0.42759008090940365 13.377015052663593 166064.49446047863 7.250211848261908 0.20848595926689878
0.4445846549810882 13.314902292988583 139796.46283798674 7.625355635218918 0.21152527117117084
0.46196679977143223 13.260550403945846 117975.069562231 8.016566477481465 0.21459619159557422
0.47973246102584355 13.213128066389352 99805.18403414132 8.424548974662075 0.2177003604248602
0.4978898816535846 13.171968656445538 84636.6800177497 8.849743404439291 0.22083523681431627
0.5164284389422975 13.136389900046547 71932.69958486456 9.293024279301326 0.22400424539087394
0.5353476948249419 13.105838402600543 61271.106398761294 9.755275968432942 0.22721029786092617
0.554656121100177 13.079791102167865 52302.44501786591 10.237308158839994 0.23045474531932006
0.5743393396902514 13.057825943121106 44725.96951973618 10.739590900945906 0.23373426976647343
0.5943973009834053 13.039531169830997 38322.39714691834 11.263371200985674 0.23705508786762408
0.6148351206483298 13.024487840614704 32898.99949307077 11.809585722725483 0.24041880141670302
0.6356394984028702 13.012425542201093 28288.789655529516 12.379213603944581 0.24382704360193325
0.6568108876527208 13.003021533007047 24368.692058692555 12.972942477630932 0.2472777490377897
0.6783435312496329 12.995983942838988 21025.997454735767 13.592101974647695 0.25077573445102436
0.700232507955038 12.991049767630733 18169.958264456942 14.237888622353248 0.25432362212492093
0.722462767321246 12.988031822736874 15727.37746876331 14.911492281552258 0.25792339701070105
0.7450551176410144 12.986656817520261 13632.457391576905 15.613939744300843 0.2615749261432357
0.7679777606644479 12.986761288281238 11835.072815046944 16.346503111333433 0.265280163057751
0.7912238171092495 12.988144597972234 10287.584007223742 17.110795843188452 0.26904377048057504
0.8147988913544629 12.990668637908486 8955.291271695998 17.908273213007735 0.272868181438142
0.8386820445428798 12.99413491796421 7806.381217191855 18.74029393866223 0.27675441709567106
0.8628633535158274 12.998406877391544 6813.394116682061 19.608215894600008 0.280703077456427
0.8873453397839435 13.003367506091664 5954.693195123897 20.514118787243845 0.28472046530351114
0.9121013830367102 13.008850028244954 5210.42238027046 21.45979703938149 0.28880959457081967
0.937122305571432 13.014740632016268 4564.611112969206 22.44672624809339 0.29297031737338985
0.9624071878076006 13.020950694586617 4003.9883623646324 23.476949203999418 0.29720657171440323
0.987927853577423 13.027337224644842 3516.087897825805 24.552880317075754 0.30152439087998706
1.0136715211499696 13.033799535693166 3091.6595972540163 25.676451535794087 0.3059253284449532
1.039636855062566 13.040254813817256 2721.0177570168453 26.849645257266165 0.31041079983791237
1.06578828905898 13.046584169965033 2397.8709714414767 28.075548622267007 0.31498946501313757
1.092121450853755 13.052705627748852 2115.3260860442733 29.356203447524752 0.31966167767385645
1.1186203444570713 13.058544485799642 1868.342868148935 30.694392384842114 0.32443230606246476
1.1452518198224724 13.06400639930687 1651.8607930328649 32.093488301482765 0.32930922443684424
1.1720148947451268 13.069013440616597 1461.8016786029746 33.55546026938417 0.3342903112093045
1.198873130746972 13.073464973444954 1295.2085425626412 35.08483795310103 0.3393890460640462
1.2258190096322 13.07733852244035 1148.8857738580466 36.68362844707504 0.3446020905929053
1.2528151216752255 13.08050148927841 1019.9858214734315 38.356900590969474 0.3499439833989647
1.2798585035076808 13.082937649792465 906.5717467357715 40.10691147191922 0.3554114016297735
1.3069030674051574 13.084525827856105 806.5983084186327 41.93910101812956 0.3610187206281014
1.333940418826889 13.085240884074265 718.4535745871764 43.8569840336866 0.3667680433933626
1.3609499048999636 13.08503320071374 640.5275913334827 45.86522109863687 0.37266696699858026
1.3878807623185467 13.083773574703239 571.7138488708176 47.96916018441389 0.37872552862804604
1.4147380126343945 13.0814793458412 510.725296528367 50.17357441343427 0.38494946124371165
1.4414622311623553 13.078025761260196 456.78917603544016 52.48365366989956 0.39134557867530595
1.4680569256464147 13.073426207683674 408.941009164386 54.905829973166796 0.39792565200635627
1.494466263354428 13.067560326934714 366.4689779940802 57.44629393493606 0.40469874350756374
1.5206775583767522 13.060414939589148 328.7766919091804 60.11167434261029 0.41167462563947066
1.5466622818236655 13.051924748245833 295.2439425466627 62.909077605168925 0.41886383952937
1.5723790244222848 13.042041732105893 265.41988117244836 65.84613097584301 0.4262777582227333
1.5978027993299238 13.03071007708582 238.87744319398803 68.93102993501815 0.43392865526800484
1.6228904027072826 13.01788574402933 215.19401587346022 72.1725901644596 0.4418297792620584
1.6476419269120341 13.003545565340227 194.062571026071 75.58030459800159 0.44999543505943224
1.671991354320164 12.987612850509159 175.19647184818137 79.16407708865617 0.45843969854246436
1.6959280873397184 12.970057506510894 158.33688884517386 82.934170705979 0.46717613693674226
1.7194085121871179 12.950843641173396 143.25351713602151 86.90329083572442 0.4762261587843924
1.738439725624993 12.929611411570088 131.58199090661026 91.38057700372994 0.8139647919701007
1.7476366258184324 12.900539202534052 124.52714381946535 96.82501726971208 1.1710585450535338
1.749643078690022 12.861442511533943 120.01763594971143 103.23970055556545 1.5025402940863584
