M[M_sun], R[km], Lambda[1], P_c[MeV/fm^3], rho_c[fm^-3]
0.24162668629717493 15.618656898711224 2160425.4255784233 3.5677272577965504 0.1711233750220791
0.25364446878759167 15.277265498600219 1723246.3860570071 3.784827456064687 0.17388827090035686
0.26604082526215833 14.98123911494618 1383036.16869073 4.011417988724881 0.17666686056614986
0.27881661439992744 14.723462967026093 1116392.983962125 4.247754704036629 0.1794578214560055
0.291970968772337 14.498374610420182 905861.7974379057 4.494462868564174 0.1822677213064222
0.3055069177896153 14.301225567378575 738665.0095299189 4.751698087898593 0.18509226638992848
0.3194249746006184 14.128076636909622 605052.1113465169 5.0201426823184025 0.18793807623247774
0.3337228176478359 13.975906871096798 497668.08518933755 5.300020623402833 0.19080177219237776
0.348404136153377 13.842001194611687 410990.4553911921 5.592060671913315 0.19368965377406058
0.3634673642683611 13.72396091964634 340650.6417252123 5.896429936535344 0.19659678077310158
0.37892172980063016 13.619966369402368 283286.55043835664 6.213992590685474 0.19953083580684758
0.39475409390381094 13.528432390015801 236397.140084151 6.545005732358208 0.20248799149668223
0.41097963773176055 13.44786884891631 197857.5187579897 6.890172433111531 0.20547197030689116
0.4275875011394335 13.377048848661405 166067.13445214814 7.250197547781437 0.20848584096268877
0.44458387314492664 13.314905267015165 139792.93654891866 7.62533968948777 0.21152514423289784
0.4619660426984896 13.260552439233136 117976.64739625629 8.016548608352272 0.21459605336341336
0.4797311540087041 13.213134778971089 99805.34913543603 8.424529042781458 0.21770021056498223
0.4978895620431418 13.171958708513026 84633.88218601311 8.84972148329426 0.2208350780958601
0.5164279688235814 13.136392165511435 71935.38742524896 9.293000014118812 0.22400407456247629
0.5353474569916996 13.105840225871352 61271.984576573224 9.755249194673754 0.22721011455359857
0.5546548177049256 13.079808745131377 52301.08093221259 10.237278701966115 0.23045454914803118
0.5743377426129312 13.057830166066754 44726.882352226065 10.739558888944849 0.2337340642395106
0.5943959295846063 13.03950756919712 38322.40912913193 11.263336152414025 0.23705486888351418
0.6148333867401145 13.024517038477725 32899.32525570385 11.809547430513796 0.2404185685361668
0.635638681069667 13.012421261954676 28289.40198833379 12.379171848104104 0.24382679636250337
0.6568093195360863 13.00302137054138 24368.813335417275 12.97289744991232 0.24727749167781463
0.6783418260225422 12.995972470694223 21025.809353353776 13.592053035606012 0.2507754619715518
0.7002296768164028 12.991059430633985 18170.830644309903 14.237835509560501 0.2543233339854281
0.7224659129251105 12.987996028081017 15728.12576754177 14.911434715717872 0.25792309263843505
0.7450542122550743 12.986649895131 13536.2764355152 15.613877989890383 0.2615746104956527
0.7679754542304291 12.986762821366366 11835.0819507817 16.34643633200596 0.26527983017955237
0.7912216696725661 12.988144445224712 10288.15786667574 17.110723703759863 0.2690434196909623
0.8147959261922234 12.990664141453221 8955.233844117509 17.908195356070355 0.2728678120125412
0.8386800495468472 12.994136018693629 7806.757532591961 18.740210709554546 0.27675403470098514
0.8628617670306659 12.998404534990744 6813.528380481321 19.608126211063404 0.28070267510295865
0.8873433044009171 13.003365115878406 5954.828925974828 20.514022217591208 0.2847200421203199
0.91209935278233 13.008847076505086 5210.462172638041 21.459693122362975 0.2888091496282394
0.9371195535268656 13.014746933253932 4564.781255888227 22.446615416608807 0.2929698570425008
0.9624043246057356 13.020954233031244 4004.0236849745143 23.476830067087054 0.2972060878640031
0.9879258919146329 13.027342012314872 3516.0889132088028 24.552752313913714 0.30152388238419026
1.0136678253802505 13.033796407413107 3091.678735158879 25.676315161891083 0.30592480215179735
1.0396335419832186 13.040247840183618 2721.127100708916 26.849498845292402 0.31041024671983986
1.0657837427893064 13.046586832333094 2397.7360359183217 28.075391486804975 0.3149888837007358
1.0921176049614327 13.052707932852009 2115.5167437548985 29.35603614552267 0.3196610754893729
1.1186170981002044 13.058542113885292 1868.3461201710138 30.694212918721455 0.32443167298409503
1.1452480599698098 13.063999410484941 1651.887681929269 32.093297257019785 0.3293085680268866
1.172012038968395 13.069009513874798 1461.87742189438 33.555255405464685 0.33428962079677355
1.1988694679218461 13.07346927249412 1295.223940788885 35.08461830271661 0.3393883197397723
1.225815001751343 13.07733291816265 1148.8762407024087 36.68339464767677 0.3446013363922379
1.2528121122974816 13.080493244012896 1020.0386130347825 38.3566516936602 0.3499431996451987
1.279855508743662 13.082939717897993 906.5692352315837 40.10664464747409 0.35541057616408056
1.3068980238315562 13.084521314731141 806.6362523030645 41.93881690482911 0.3610178617105512
1.3339372769207043 13.085232372254639 718.520113506448 43.856679445866355 0.3667671380008396
1.3609450481243581 13.085032382806128 640.5346599062241 45.864896674557826 0.37266602361742807
1.3878762048679458 13.083770664838221 571.7163931188632 47.968814538243784 0.3787245448074689
1.4147340156457642 13.081480167155567 510.74847126100224 50.1732037547004 0.38494842261709195
1.4414578066825827 13.078028489025641 456.8215361134795 52.4832585870599 0.39134449392585297
1.4680517938284672 13.073428140385792 408.94530473247477 54.905408716678735 0.39792451805965173
1.4944616436469447 13.067560781303778 366.4651890767915 57.4458446135337 0.4046975570515072
1.5206744820919562 13.060412100442027 328.78441044161184 60.11119491061494 0.4116733831047597
1.546657651958753 13.051923906912968 295.24289276920683 62.90856584853333 0.418862537068046
1.5723737974654446 13.042042166832768 265.4188227608932 65.84558449678809 0.4262763916845837
1.5977990157763855 13.03071269373967 238.8877995232857 68.93044613510378 0.43392722017459084
1.6228849622884196 13.017889971420024 215.1960865078214 72.17196622591385 0.441828270778112
1.6476371074281402 13.003549136471298 194.06203649428917 75.5796374631055 0.4499938479613244
1.671985681646383 12.987617324561382 175.1924724609922 79.16336692089118 0.4584380417291935
1.6959233827477784 12.970061096500276 158.3398027918004 82.93341057583814 0.46717439015989237
1.71940301068954 12.950847806504262 143.25127804000246 86.90247682986089 0.47622431546161
1.742385971335017 12.929909400206862 129.76613439623517 91.08211679609542 0.4856020492853065
1.7648679726992984 12.907256478715532 117.6579816578241 95.48647792970638 0.4953297385017371
1.7867954697281159 12.882818001192842 106.81252718183137 100.12917404750263 0.505424686242476
1.8081331290643912 12.85655799015769 97.07044770446869 105.02676109817509 0.5159127082147456
1.8288424392008815 12.828421139179353 88.31713890382008 110.19578283493084 0.5268163456530777
1.8489217446568575 12.79845247156088 80.45155633242184 115.65391241793058 0.5381591202552333
1.8682980522397588 12.766510827596155 73.37201333030139 121.4212867459081 0.5499700910112899
1.8869760492592167 12.732689040631222 66.99691859379377 127.5193443371848 0.562279110367959
1.9048991126207762 12.696871116421963 61.24689312489878 133.97055949538276 0.5751155894051464
1.9220393465292156 12.659051732680187 56.06602766556959 140.80062498502895 0.5885158482449997
1.9383531585766318 12.61916185289742 51.381483013850676 148.037214948962 0.602518130024119
1.9538495369056286 12.577313877331338 47.1574378152533 155.70880153577394 0.617158097090189
1.9684650385552158 12.53338322853492 43.33144888650228 163.84906609560798 0.6324834573201814
1.9821785258143485 12.487379471597487 39.873815924903944 172.49183113775732 0.6485359242268566
1.9949678607581622 12.439301843517645 36.73974503219121 181.67631218047174 0.665368400688159
2.006803178107238 12.389138490539402 33.89833816231323 191.44456083122483 0.6830354530500988
2.017649042604433 12.336861540532981 31.322976487442904 201.8426199245897 0.7015963261113473
2.027486463237279 12.28247396696057 28.987324578477466 212.92039792554021 0.7211135420682082
2.036294011553351 12.226006589374165 26.865617756710314 224.7334901616252 0.7416577663142895
2.044037077835995 12.167408404479897 24.93890954852044 237.3429707371426 0.7633058142575672
2.050695599015723 12.106698850854118 23.184314341823967 250.81576922387967 0.7861404613507956
2.0562680306322587 12.043949726808515 21.59003146266111 265.2250800818395 0.8102501436797046
2.060713165519511 11.979097944310064 20.138594889161908 280.6524425558291 0.8357338614406551
2.0640184041235763 11.912200612510627 18.818851958891504 297.18781707289804 0.8626992930621394
2.0661756469123307 11.843297406368286 17.615188843100064 314.93155028140103 0.8912667765090381
2.06716891919621 11.77240404528574 16.521500192748228 333.9929947496601 0.9215619391731444
