M[M_sun], R[km], Lambda[1], P_c[MeV/fm^3], rho_c[fm^-3]
0.24162668629717493 15.618656898711224 2160425.4255784233 3.5677272577965504 0.1711233750220791
0.2536416348401418 15.277367189648906 1723189.896111282 3.7847963182689432 0.1738878827827543
0.2660375321649011 14.981292973476593 1383152.509692744 4.011352530980649 0.1766660695479413
0.27881064309886144 14.723595726292533 1116528.2127441186 4.247652711926891 0.17945663850123136
0.29196397276619507 14.498532804896108 906046.4307268951 4.494321665863054 0.18226614898157378
0.30549773519409573 14.301306893973498 738718.9153081172 4.751512880267503 0.18509026579403864
0.3194118689250897 14.128250434295369 605181.1837549609 5.019912105606576 0.1879356839100981
0.333708723694249 13.976070780947854 497758.88396421605 5.299738607339717 0.19079893275857146
0.34838739368964944 13.842087820107857 411069.99211731396 5.5917265125148345 0.1936864206899562
0.3634481962855941 13.724093709327692 340719.54164700746 5.896036126672891 0.19659308202753437
0.37890001301880405 13.620091354696438 283341.7932754466 6.213534364926032 0.19952665733966118
0.3947292313952327 13.528555613640808 236451.73252668296 6.5444835665969 0.20248341280836696
0.4109519513249231 13.447995611848963 197916.70749552906 6.889576247287962 0.20546689293823794
0.4275573657447568 13.377154357228907 166125.91061567614 7.2495217476468055 0.20848025024136768
0.4445512140102034 13.315021594894255 139842.89589367807 7.624586143011466 0.21151914551841766
0.46192854485968626 13.260665093726656 118013.22250268163 8.015704172320904 0.2145895209680135
0.4796911516992881 13.213235251868936 99841.36276093201 8.423587132764167 0.21769312871841826
0.4978455442979088 13.172074081143817 83795.75621238524 8.848685572363394 0.22082757765810992
0.5163802942747443 13.136478424669873 71961.2768216636 9.29185333859507 0.22399600189530225
0.535295903903924 13.10590460610573 61297.37133161169 9.753983980230746 0.22720145222580473
0.5545990753916427 13.079899041525646 52318.475916451454 10.235886701895996 0.23044527897058517
0.5742774644789846 13.05789884794863 44747.2568593962 10.73804615153601 0.23372435199675842
0.5943316090574177 13.039573291306727 38344.05965013798 11.26167992914706 0.23704452077057067
0.6147662310834385 13.02453831822014 32914.26302487809 11.807737937775434 0.2404075638012456
0.635564552788416 13.012458034220833 28305.540501759726 12.377198691930234 0.24381511315838383
0.6567328750971092 13.003055733103423 24186.940182536597 12.970769691311288 0.2472653302821796
0.6782626054660027 12.995997536162998 21037.13428648049 13.589740461176298 0.2507625861767029
0.700146563176308 12.991080206968105 18181.105329366288 14.23532572038535 0.2543097182566626
0.7223766909768644 12.98801209601695 15736.012778870547 14.908714516257293 0.25790870991850007
0.7449610796148456 12.98665801298257 13640.773020577632 15.610959876650373 0.2615596950364308
0.767878097415755 12.986757767942985 11841.44045462256 16.34328078943231 0.26526410059126015
0.7911191351130709 12.9881246051534 10294.153826140408 17.107314895793465 0.2690268438121409
0.8146882095024188 12.990659634176971 8960.648810955008 17.90451639678067 0.2728503556137698
0.8385699055611243 12.994115136167089 7810.959107976189 18.736277916187262 0.2767359655503444
0.8627453882511178 12.998388455570417 6818.369497945332 19.603888450327638 0.2806836629431531
0.8872160404868694 13.003325559503184 5958.527077325079 20.509459094532883 0.2847000458075549
0.911973179827332 13.008818089736094 5214.044100710487 21.454782845484154 0.28878812524459657
0.9369885373209794 13.01470861091345 4567.726508879885 22.44137843964939 0.2929481056216939
0.9622646985742319 13.020914698886306 4006.9472473060177 23.471200673394904 0.29718322522356344
0.9877845375746577 13.027307200458546 3518.580466652398 24.546704008237043 0.30149985533700235
1.0135238949452638 13.033755958152192 3093.9931813117464 25.6698713554821 0.3058999342618581
1.0394825530780814 13.040213326116163 2723.037991093886 26.842580766090734 0.31038411146235134
1.0656330172964033 13.04655125063218 2399.645130890653 28.067966753823203 0.31496141638491487
1.0919580828523991 13.05267304798148 2117.177048085734 29.348131072129437 0.31963262207889703
1.118452360440464 13.058509588821785 1869.7568412342978 30.6857331325695 0.3244017599889676
1.1450791265957252 13.063970968472704 1653.1026298010959 32.084270432985626 0.32927755274861165
1.1718384415721594 13.06897895822086 1463.0718133616178 33.54557566736169 0.33425699908134365
1.1986899349282107 13.073447311955137 1296.2282552619722 35.07423996794385 0.3393540014002517
1.2256330398380146 13.077309698200203 1149.7650649931318 36.67234783167149 0.3445657010738152
1.252625404854007 13.08048159535929 1020.8731387663713 38.34483361040679 0.3499058281270468
1.279663389576107 13.082920601434978 907.3490891487485 40.09403755814129 0.3553715740414413
1.3067050260501134 13.084516552466381 807.311567105035 41.92539300471067 0.3609772792267812
1.333738532004955 13.085226502451725 719.0276193328123 43.84228824290509 0.36672435990305663
1.3607433296893412 13.085036620912064 641.0649404647028 45.849568321100094 0.37262145084777243
1.3876724739082185 13.083783591661591 572.218190590869 47.95248356768711 0.37867806159351264
1.4145262623910948 13.081502183798582 511.1933244141028 50.15569110808997 0.38489935025135597
1.4412468926555275 13.078061154752845 457.1806403925273 52.464592063205 0.3912932426450895
1.4678406901229533 13.07346698229842 409.3159585986851 54.88550566931144 0.397870942635624
1.4942464632725343 13.067613013938871 366.80093768096054 57.42461570227572 0.40464150102968444
1.5204569466533955 13.060478523520748 329.0805586279584 60.08854350166938 0.41161467788245654
1.546439262236558 13.052002928951856 295.51468492408355 62.88438735558047 0.41880100088120553
1.5721544567233812 13.042134154707858 265.6704046271611 65.81976565542622 0.4262118284934023
1.5975769047773398 13.03081975034928 239.09766348502566 68.90286420336672 0.4338594184370318
1.622665036981812 13.01801639033528 215.3980437030692 72.1424881024762 0.44175700209904356
1.6474164581495017 13.003686564622324 194.24873529234432 75.54811871375354 0.44991886560355737
1.6717654111179083 12.987766962203668 175.35923925392115 79.12981526406395 0.45835976609767143
1.6957034574861296 12.97023376015022 158.48535981068113 82.89749869628443 0.4670918647652703
1.7191659412355205 12.95100274864273 143.40286450388612 86.86401988214844 0.47613722939621955
1.742172119653261 12.930117662089765 129.8848956230787 91.04109877208023 0.4855107992800646
1.7646528447725807 12.907485301066995 117.76984020235183 95.44250373132506 0.4952332492915271
1.7865821831756115 12.883066701858711 106.90510297288662 100.08220538650727 0.5053233299097257
1.8079227193618495 12.856830026656224 97.16124658656446 104.976554443217 0.5158060942777047
1.8286362181532578 12.828714008898718 88.3969426260019 110.14199977601312 0.5267037808701753
1.8487178458497446 12.798768764177117 80.52711511578589 115.59618912285693 0.5380398838463888
1.868109128157547 12.766885798546873 73.43970473559433 121.35944542164302 0.5498442047374034
1.886783939221019 12.73305832409168 67.06012367109126 127.45306276843664 0.5621461228429779
1.9047106326134724 12.697263924184107 61.30624310513003 133.89965161207658 0.5749755952267976
1.9218587732071863 12.65947434977599 56.11839666203088 140.72446491642572 0.5883674594691503
1.9381781340852025 12.61960762399714 51.43303326585874 147.95534666728307 0.6023606523111086
1.9536822181443838 12.577797358876094 47.203415630792854 155.62099378341725 0.616991692609793
1.968304906181598 12.533890172137985 43.37215066250559 163.75471887116285 0.6323071128545541
1.9820292384678795 12.48792122084255 39.90985835526354 172.39021238402842 0.6483482963088609
1.9948250720467315 12.439868237981733 36.772820343353416 181.56698560692632 0.6651692608185472
2.0066655708618204 12.389722970612471 33.93051412741854 191.32681657658907 0.6828237827914102
2.017526599800449 12.337493141435798 31.3525222507807 201.71567493487194 0.7013710112766889
2.027372853036744 12.28314037309588 29.013112271161077 212.78370753492268 0.720874410407749
2.0361933216301726 12.226700946952212 26.889759062911082 224.5857893615009 0.7414024619650172
2.0439487414261674 12.168137648356797 24.960982844252307 237.18354004950103 0.7630339702895859
2.050620502379095 12.107463161976801 23.205075684825616 250.64325432508727 0.7858498655192704
2.0561988146308035 12.044728682102294 21.609381203889413 265.038253901072 0.8099392540605351
2.060664521118885 11.9799310523861 20.155987713367896 280.4503923950123 0.8354024521501525
2.0639878162112097 11.913081019564638 18.834422608331337 296.9686088398416 0.8623441364466125
2.066156755709889 11.844199746615688 17.630962454010795 314.6934239918802 0.8908855831553517
2.0671637699063297 11.77334212111312 16.534266609664645 333.7343800536092 0.9211534779187281
