M[M_sun], R[km], Lambda[1], P_c[MeV/fm^3], rho_c[fm^-3]
0.24162668629717493 15.618656898711224 2160425.4255784233 3.5677272577965504 0.1711233750220791
0.25364399623909006 15.277293260347061 1723273.2095301752 3.7848197626414346 0.17388817500554746
0.26603991571943114 14.981252308435103 1383046.5697751215 4.011401815571585 0.176666665123137
0.2788148874889037 14.723521671638547 1116437.1218474149 4.247729503946915 0.17945752917294053
0.29196940009204614 14.498405018488846 905915.053304485 4.494427980223643 0.18226733281665322
0.30550447890680305 14.301245047243757 738659.5865798506 4.751652326635131 0.18509177208094643
0.31942092393721794 14.128153619027973 605082.6309641659 5.020085710996831 0.18793748513302752
0.3337192463530842 13.975937126074127 497687.875522394 5.299950942066024 0.19080107061693835
0.348399996065385 13.8420350900391 411010.5833364627 5.591978106537023 0.193688854931332
0.3634627226245654 13.72399540781516 340662.0366463808 5.896332632106512 0.19659586686931418
0.37891590897870353 13.620008184676902 283307.8458449745 6.213879369618936 0.1995298033670478
0.3947481925157997 13.528462066064646 236412.82753880203 6.544876712159442 0.2024868601638368
0.410972547159554 13.44790198021602 197865.87131278065 6.890025122969325 0.20547071575190382
0.42758072722044005 13.377061410186457 166082.21636254922 7.250030565282421 0.20848445955926834
0.4445755689504048 13.31493121336684 139808.12258836394 7.625153496110874 0.2115236620138958
0.46195679540140167 13.260575751085673 117980.79226273857 8.01633995633295 0.214594439271356
0.4797214107482938 13.213188729364767 99812.4972719848 8.424296304997297 0.2176984607022068
0.49787800485850664 13.171991992769978 84643.97924651853 8.8494655178497 0.22083322479667583
0.5164169438702104 13.136398972245287 71939.69006281326 9.292716678556536 0.22400207986245393
0.5353346412598755 13.105847580679672 61277.42331692433 9.754936567803727 0.22720797414456334
0.5546411084752286 13.079828846818305 52300.62461643958 10.23693474585433 0.2304522585345044
0.5743236674458345 13.057864175795322 44731.603708128656 10.739185098061764 0.23373166438625526
0.5943792457422153 13.039527225448682 38328.787571284054 11.262926905289406 0.2370523119000737
0.6148168596586515 13.024503482711232 32903.25085995699 11.809100309382316 0.24041584929368226
0.6356205866196682 13.012436818339765 28292.79746535981 12.37868428435678 0.24382390946137678
0.6567906672144966 13.003014902213645 24371.5494795489 12.972371682527527 0.2472744866070442
0.6783224123766727 12.99597401989289 21028.569576999413 13.591481598294761 0.25077228036169996
0.7002095747278475 12.991066852237845 18172.91123349533 14.237215338202555 0.25431996952554375
0.7224445305481179 12.987988489060784 15615.943743406811 14.910762549310546 0.2579195386412645
0.745031731429752 12.986637642814408 13537.96758337371 15.613156916430095 0.2615709248464307
0.7679516899623704 12.986759367588634 11837.055928511563 16.345656586275815 0.2652759433426546
0.7911954082797553 12.988141867859666 10289.347949445893 17.109881372159993 0.2690393237176295
0.8147687677352117 12.990669483722389 8956.514373454835 17.907286265524977 0.2728634984429064
0.8386508788548007 12.994124538929345 7807.684834337857 18.739238892319797 0.27674956970362324
0.8628332799176046 12.998403432546688 6815.067795274011 19.607079030649437 0.2806979770648633
0.887311732023829 13.00335924536789 5955.647990927093 20.512894633662036 0.2847151008727076
0.9120675820482378 13.008841459824575 5211.465360808288 21.45847974942067 0.28880395431667744
0.9370877178538625 13.014736269589026 4565.292445422091 22.44532130924587 0.2929644820572681
0.9623660531774365 13.020931728404724 4004.639714645808 23.475438984507885 0.2972004382643182
0.9878903398374089 13.027338266730437 3497.4190868000996 24.55125770805936 0.3015179450246536
1.0136311109948632 13.033793087272159 3092.0089469901186 25.674722818340257 0.30591865699136667
1.0395961505472808 13.040241781430987 2721.512857081709 26.84778929650414 0.31040378835235544
1.0657467974581682 13.046572229592734 2398.482579706714 28.073556730003933 0.3149820961375153
1.092078875080134 13.052699841742738 2115.9094722842106 29.354082683611228 0.3196540442259234
1.1185757166150256 13.058532915533775 1868.6493990534364 30.69211742835249 0.3244242810060341
1.1452067166566557 13.063987663170026 1652.1795028006593 32.091066577658665 0.32930090363231485
1.1719692991535273 13.06900140634079 1462.1247131191174 33.55286337039161 0.33428155939194815
1.198825043530481 13.073465228953555 1295.5676234236505 35.08205362146463 0.33937983903415864
1.2257704438726318 13.07732816447053 1149.1482806075444 36.680664763008956 0.3445925302068766
1.252765226629671 13.080490962336286 1020.2434807729392 38.35374552653931 0.34993404840353926
1.2798064282236528 13.082937445220225 906.7528066376532 40.1035291648111 0.35540093790153676
1.3068510415019607 13.08452173111185 806.8075833666456 41.93549955902236 0.3610078328716017
1.3338873770126072 13.085234519468198 718.6441018923559 43.8531230423161 0.36675656653025174
1.3608948609382419 13.085033363954372 640.6596285052212 45.861108665396536 0.3726550086013492
1.3878259790272098 13.083777729751306 571.8305944622714 47.964778743068855 0.37871305763161806
1.414682773060512 13.08148571559195 510.85715114621837 50.16887591769472 0.3849362955408645
1.4414053543080532 13.078034048661907 456.91132497065195 52.47864557882128 0.39133182833357455
1.4680004166221796 13.073436758703012 409.0469746339307 54.900490110399836 0.397911278056141
1.4944084812760292 13.067573789797825 366.5542638546954 57.44059832776386 0.40468370396662545
1.5206202864390483 13.060428974078734 328.8647403482772 60.10559706111042 0.4116588752655179
1.5466037352081634 13.051943930839021 295.3086191923407 62.90259058532532 0.4188473295481271
1.5723192957417325 13.04206509330148 265.48110245169477 65.83920382482097 0.42626043602885516
1.5977436941815366 13.030738279813033 238.93944027921881 68.92362971659736 0.43391046409589884
1.622831522860046 13.017918725134766 215.2526033449659 72.16468116237596 0.4418106578233263
1.6475822554427573 13.003583847342277 194.10996830140556 75.57184805466474 0.44997531714323974
1.671931901828549 12.9876496534856 175.24842170094942 79.1550750760052 0.45841869694993936
1.6958689359179355 12.970104761543782 158.37658867561922 82.92453539066692 0.46715399501021765
1.7193492350251944 12.95089432393245 143.28675864414663 86.89297261513377 0.47620279309141567
1.7423350407298297 12.929956599480997 129.78701000046996 91.07197959583605 0.4855794977460987
1.7648145516727531 12.907312535261953 117.68424047290935 95.4756100837507 0.49530589202103825
1.7867420119615345 12.88287647363142 106.8263772393969 100.11756609275727 0.5053996367797324
1.8080800268650914 12.856625969228263 97.09040081203018 105.01435283875743 0.5158863592498635
1.8287913543765852 12.828494276606135 88.3360267349658 110.18250861153832 0.5267885927830104
1.8488712665210332 12.79853280656648 80.47011382343591 115.63964631646834 0.5381296514124654
1.8682580833712903 12.766626689518286 73.38278339738685 121.40600280921194 0.5499389785171145
1.8869278195578707 12.732780894291004 67.01310820350184 127.50298169820073 0.5622463097367043
1.9048516373319377 12.696968829726307 61.2599643685028 133.95303460106982 0.5750809898223413
1.9219952474870872 12.659155179551815 56.078769022832795 140.78180190450192 0.5884791737260773
1.9383098327099482 12.619284108898892 51.39568585131945 148.01698095498773 0.6024792089300056
1.9538072694460074 12.577432084453948 47.16460507101636 155.6870994652854 0.6171169694942052
1.9684254198110083 12.533508589429177 43.34174876485312 163.82576442855404 0.6324399296124743
1.9821416611115932 12.487512605023037 39.882510377013524 172.4667153117145 0.6484895506001761
1.9949302192755947 12.43944331857584 36.74575185248034 181.64929114468978 0.6653191814968142
2.0067694490827486 12.389286837464537 33.90540294587957 191.41545910600678 0.6829831365296517
2.017619080776932 12.337018079305269 31.330275521489572 201.81124393480889 0.7015406368244725
2.027456790568567 12.282636965879577 28.992953065220142 212.8866130304565 0.7210544374155452
2.036269008756148 12.226177344268445 26.871618333572275 224.6969836347295 0.7415946639134531
2.044017026884834 12.167587616449321 24.944229101756093 237.30356471953115 0.7632386233776413
2.0506772770463586 12.106888416312094 23.189728952490647 250.7731790022621 0.7860687982300235
2.056253045205168 12.04414782326714 21.595468057445416 265.1789021073389 0.8101733008472518
2.06070113460178 11.979304097592065 20.143072209986894 280.6025012988155 0.835651946155427
2.064009442423135 11.912415629918772 18.82324159394992 297.1336343772746 0.8626115073867137
2.066172113910355 11.843519862911768 17.619913307151315 314.87269103396324 0.8911725544306132
2.0671685804778046 11.772634828506956 16.524663456530774 333.92907072328916 0.9214609762797067
