M[M_sun], R[km], Lambda[1], P_c[MeV/fm^3], rho_c[fm^-3]
0.24162668629717493 15.618656898711224 2160425.4255784233 3.5677272577965504 0.1711233750220791
0.25364196012737616 15.277342094749576 1723126.7183314804 3.7848025694249 0.17388796070039764
0.2660378934693469 14.981275597436644 1383110.2083375035 4.0113656720733175 0.17666622835029086
0.278811262175724 14.723598599821717 1116499.0179904818 4.247673187452625 0.17945687598647392
0.29196470173446754 14.4985186274805 906001.784482257 4.494350013024928 0.18226646463380028
0.3054989835328086 14.301298346288492 738728.9223041113 4.751550061477778 0.18509066742207103
0.31941410811760923 14.128232053400094 605156.589596517 5.019958394655581 0.18793616417684744
0.33371075721348326 13.97602851064676 497712.58587719966 5.299795222765418 0.19079950278196628
0.34839086132148805 13.842109885867355 411056.70173598855 5.591793595573226 0.19368706973700006
0.36345166210319957 13.724073634568985 340698.0882682343 5.896115184326398 0.1965938245537465
0.37890429856846114 13.62007548420573 283338.7226289916 6.213626353736488 0.1995274961668508
0.3947340805483491 13.528525622131742 236437.47371270973 6.54458839095814 0.20248433197640425
0.41095757412761547 13.44795908707448 197918.49256521114 6.889695930623811 0.2054679122117492
0.4275644637942797 13.377124544906904 166112.0651432819 7.249657412869687 0.20848137256498855
0.4445570833722027 13.315013957132505 139832.1728529719 7.624737415066409 0.21152034974124262
0.4619373394504645 13.26063255989532 118001.31908984063 8.015873689480458 0.21459083232029139
0.479699567497616 13.213208254021911 99829.65695367809 8.423776216677403 0.21769455036511132
0.497853883562989 13.17207743631423 84665.86786081304 8.848893525774631 0.22082908332965892
0.516390277811524 13.136454989913727 71956.65669966931 9.292083526475592 0.22399762243233165
0.5353064946000635 13.105886637222463 61291.48736663289 9.754237963048247 0.22720319112661427
0.5546109400415862 13.079861873945262 52313.61286976806 10.236166134926934 0.23044713988556406
0.5742910793185815 13.057874441961621 44744.02950974936 10.738349820607693 0.23372630164626354
0.5943448770013721 13.039558490108655 38003.17880296422 11.26201240047683 0.2370465980574556
0.6147790355578937 13.024531022263162 32911.408910825405 11.808101175101205 0.24040977289023438
0.6355810179694182 13.012439868431724 28303.07914285394 12.377594781487879 0.24381745843404568
0.6567490236000718 13.003039761411115 24378.38595397593 12.971196814217553 0.24726777154156182
0.6782786012302553 12.995988126362942 21034.7794779267 13.590204681919355 0.2507651708334281
0.7001639430902887 12.99106895959834 18042.6928110617 14.235829527595314 0.25431245143536496
0.7223945564805851 12.988013061108942 15735.248034587952 14.909260558444814 0.2579115970493776
0.7449804696358775 12.986653108841443 13639.008448883968 15.61154564539013 0.26156268909767266
0.7678958645845605 12.98675991334059 11839.966871230818 16.343914216189713 0.26526725806477686
0.7911400390051743 12.988128868910746 10224.227164201582 17.107999159023134 0.2690301711525158
0.8147114514221646 12.990657084228564 8959.604666094205 17.905254885640684 0.2728538596906061
0.8385916601261971 12.994112183149214 7810.0898575987685 18.737067355419438 0.2767395926151494
0.8627677358417464 12.998391789080404 6817.233604012277 19.604739103057934 0.2806874792854754
0.887240259906459 13.003334458750457 5958.119042152387 20.510375054157016 0.2847040596846497
0.9119999710860393 13.008829596830992 5213.3841398396025 21.455768485671385 0.28879234547044974
0.9370143072198167 13.014721094048593 4567.147824055828 22.442429654971004 0.2929524717716686
0.9622910059187058 13.020917618446498 4006.3667881030956 23.47233065375455 0.29718781440955383
0.9878126649057517 13.027310577568706 3518.006443265167 24.54791807129743 0.3015046782331985
1.0135522079660988 13.03377236851119 3093.5705115087444 25.67116480228993 0.30590492592219326
1.039511665646399 13.040227227817004 2722.7117246003118 26.84396940661197 0.3103893574961887
1.0656611973892267 13.04655189116198 2399.419001747609 28.069457086906986 0.31496692977503826
1.0919895097653483 13.052673696663279 2116.671954899291 29.34971781643987 0.31963833338414865
1.1184853202904244 13.058516265504624 1869.46246547183 30.687435228797373 0.3244077642437045
1.1451135429616093 13.06396832638357 1652.8742703382993 32.086082326605094 0.32928377823662375
1.1718738123027197 13.06899100876222 1462.862513817079 33.54751860765035 0.334263546990442
1.1987258590633645 13.073445362709748 1290.1616832295688 35.076323123142295 0.33936088982974827
1.2256686048523555 13.077322064121313 1149.596039832861 36.67456515754394 0.34457285382384506
1.2526636784254326 13.08047783154225 1020.692422781653 38.34721061333081 0.34991335795121925
1.2797021769665804 13.08292604231826 907.2010069421318 40.096568042743904 0.3553794025154215
1.3067434237243274 13.084521082123924 807.1658313036168 41.928087428858156 0.3609854248791825
1.3337754616309034 13.085231727031887 718.880110453047 43.845176809118605 0.36673294621569963
1.3607838533236765 13.085034837661707 640.9666917622507 45.85264497794957 0.37263039734795844
1.3877136107976387 13.083780707799448 572.1172370669788 47.95576145367971 0.3786873915151722
1.4145683825958115 13.08149887668684 511.10345713168874 50.159206158185036 0.38490919980908883
1.441289713520945 13.078052522895174 457.1047210905773 52.46833869843731 0.39130352950169456
1.4678827034001587 13.07346020812211 409.2450070403008 54.88950047566545 0.39788169593587874
1.4942899497514963 13.06760106917573 366.72882777894347 57.42887660904029 0.4046527521710961
1.5205004649438931 13.06046539051877 329.0178129715504 60.09308990168955 0.4116264607002276
1.5464827459942603 13.051987479247787 295.4533373670833 62.88924023750616 0.4188133518515276
1.5721980652223893 13.042115294688234 265.61506232036464 65.82494774929366 0.4262247869570449
1.597620729701512 13.030797755079233 239.05445713593753 68.90840014101094 0.43387302684542306
1.6227015434028553 13.017960181031947 215.3539604317816 72.14840459445844 0.44177130628530514
1.647460844067046 13.003658675153156 194.20783931813935 75.55444474469074 0.4499339150812407
1.6718090886035042 12.987736204613102 175.33381256933444 79.13654928563636 0.4583754764929577
1.6957470715982401 12.970199409869288 158.45164086981876 82.90470639210172 0.4671084280292662
1.7192118048011886 12.950964562193624 143.3714791801275 86.87173834561767 0.47615470791842107
1.7422150477349656 12.93007620325001 129.85859698310313 91.04933121632573 0.485529113438257
1.7646959957078128 12.907437720178368 117.74875183617836 95.45132944032254 0.4952526148677526
1.7866244061563776 12.88301719703612 106.88248738305772 100.09163204436935 0.5053436722284281
1.8079644451446668 12.85677623974527 97.14118779564005 104.98663091923785 0.5158274916956562
1.8286774092356428 12.828657854772072 88.38096413869299 110.15282199613637 0.526726476780355
1.8487594382707009 12.798705677956745 80.50896788694904 115.60777405784376 0.5380638143244179
1.8681487985203074 12.766815632800618 73.42515848567177 121.37185676735857 0.5498694696890294
1.8868222864304356 12.732983750656315 67.04768326742125 127.46637018730624 0.5621728307264674
1.9047481520028138 12.697184923001526 61.292924495516075 133.91388243131323 0.575003691282601
1.9218950914054644 12.659389184389957 56.1061742002951 140.73974972719384 0.5883972400930464
1.938213506995928 12.619519547138141 51.422911933524006 147.97177697467555 0.6023922568248368
1.95371532190736 12.577702736115556 47.19344589705602 155.6386159929022 0.6170250884607751
1.9683365192541946 12.533788205255236 43.364420172563364 163.77369511159014 0.6323426446128869
1.982060336023992 12.48781442643541 39.90154789166588 172.41060607074238 0.6483859510215786
1.9948543232092086 12.439755879411715 36.76841217757787 181.58892601992238 0.6652092255850406
2.0066914705628034 12.389603096741036 33.92611823700848 191.3504461488697 0.6828662619568932
2.017551056352579 12.337366969499922 31.344653140872023 201.74115078377872 0.7014162283955132
2.027395418349033 12.283002796372967 29.008821482773214 212.8111389490212 0.7209224000255451
2.0362139680261047 12.226560586548086 26.885088658876402 224.61543015252226 0.7414536967779448
2.0439664744278594 12.167991098599058 24.95632356128013 237.21553457838016 0.7630885239003923
2.050635311491458 12.10731070739851 23.200644431751417 250.67790310130286 0.7859082755239986
2.056211172028791 12.044566792047693 21.605148318359113 265.0757455564914 0.8100016423533724
2.060674813234506 11.979763647963697 20.15311374300475 280.49093883820933 0.8354689577540977
2.063996259206764 11.912907094413443 18.832219577184805 297.0125981074662 0.8624154069422103
2.066161138404575 11.844018333109933 17.62744925948419 314.74120918849815 0.8909620778565122
2.0671646848990965 11.773153749045049 16.531957655352905 333.7862762407575 0.9212354438008907
