M[M_sun], R[km], Lambda[1], P_c[MeV/fm^3], rho_c[fm^-3]
0.24162668629717493 15.618656898711224 2160425.4255784233 3.5677272577965504 0.1711233750220791
0.25363722026121344 15.277435374346396 1723407.1651266334 3.7846851508129604 0.17388649713404442
0.2660236128702769 14.981649647802953 1383294.6226286811 4.011118841452212 0.17666324554790427
0.27879180908521484 14.723928325912926 1116949.498068676 4.247288601091167 0.17945241536424028
0.29193584041196025 14.498957007424567 906304.826396041 4.493817586256119 0.1822605359381598
0.30546379989603545 14.301751853736866 739070.0029721105 4.750851724268417 0.1850831240474133
0.3193704054988172 14.128710630754085 605483.5336852948 5.019089010437664 0.18792714398003507
0.33365831238834315 13.976595561359366 498081.34104415285 5.2987319128824675 0.19078879701579513
0.3483278051703059 13.842640024767734 411378.7604130149 5.590533712977828 0.1936748800263078
0.36337936438531104 13.724596423498655 340990.4710556974 5.894630435761603 0.19657987948101965
0.37882095474156696 13.620594380924805 283619.9209662964 6.211898783034274 0.19951174280217715
0.3946408077927963 13.529021401741673 236708.7607781109 6.542619799513546 0.20246707008887194
0.4108532995985713 13.448421313808364 198129.49424162463 6.887448330496979 0.2054487707059003
0.4274470300542555 13.377593572364365 164304.24009492714 7.247109726656375 0.20846029620986187
0.4444292531543526 13.31543261826658 140007.07364556417 7.6218966914256185 0.21149773575448264
0.46179741417244835 13.261047624814076 118163.75217523056 8.012690400113085 0.21456620700345586
0.47954571846709787 13.213605952249244 99975.81437115575 8.4202255554095 0.2176678543561101
0.4976881394275365 13.172393258896092 84789.77593838176 8.844988590284391 0.220800809928259
0.5162112768737809 13.136763434433805 72068.29352946914 9.287761150093065 0.22396719263312992
0.5351122156489931 13.106177752059118 61388.49611421182 9.749468858964635 0.22717053931562398
0.5544044059329057 13.080123090971314 52406.43215802428 10.230919237634076 0.23041219759641487
0.5740663686919005 13.058097202562605 44820.13182008521 10.732647930771257 0.2336896937472892
0.5941126058834036 13.039769353001796 38407.69444194245 11.255769809398304 0.23700759423542914
0.614527624387538 13.024694851370278 32970.668944540805 11.80128103035154 0.24036829503099616
0.6353107467734125 13.012607610560961 28355.077589435772 12.370157932607516 0.24377342429998877
0.6564606901667023 13.003147082063562 24430.508317996413 12.963177410685065 0.2472219359194813
0.6779781134047049 12.996077018160605 21078.339374895815 13.58148890265849 0.25071664370960056
0.6998477856911678 12.991130526583685 18216.254467678227 14.226370673471747 0.25426113669010514
0.7220614077324083 12.988046552008273 15768.136033934416 14.899008931211338 0.25785739283181414
0.7446289485105455 12.986669479385608 13668.80392283812 15.600548333040996 0.2615064781317495
0.767529957535906 12.986737279177806 11866.752012305891 16.33202237141572 0.2652079802011562
0.7907538448444107 12.988101028460708 10316.3866977463 17.095153142849476 0.2689677053258894
0.8143090221865034 12.990603271828647 8981.486321539996 17.89139110692119 0.2727880770518898
0.8381684568165745 12.994050010458214 7828.770576183866 18.72224728831269 0.2766715020749026
0.8623296489782052 12.998306592482338 6833.907056886206 19.588770161402167 0.2806158367153504
0.8867814109203038 13.00325562403098 5972.635934796522 20.4931804377088 0.28462871020930613
0.9115241478182319 13.008716850562088 5226.691906383267 21.437266137525732 0.2887131237737293
0.9365221405986376 13.014603583295724 4579.487989753999 22.422696620733134 0.2928705119817304
0.9617783163141116 13.020790197461343 4016.6490979377377 23.451119451424425 0.2971016694144289
0.9872816687267915 13.027177004393392 3527.5707736339205 24.5251289394192 0.30141414783075515
1.0130033423845703 13.03363684016019 3101.8763850295295 25.646885916586264 0.3058112290264134
1.0389460095272356 13.040085775583561 2730.2588772617055 26.817904147630504 0.31029088764131607
1.0650793591270127 13.046419637177024 2406.067846037123 28.041483541655495 0.31486344346732326
1.0913871047383403 13.052544403197771 2122.8410787662087 29.319935079709143 0.3195311338186116
1.1178638654445427 13.05839244906791 1874.850414301748 30.65548797190504 0.32429506822488613
1.1444810256157925 13.063852826364805 1657.6604858346768 32.05188600992105 0.3291657103914107
1.171217948984045 13.068872500604046 1467.1479417666426 33.5110521221999 0.33414065117462194
1.198059460392315 13.073359562183681 1300.0290893616434 35.037225746279944 0.33923160540378733
1.2249836928040818 13.077230259516664 1153.1368338344153 36.632950280882376 0.3444386106735793
1.251964899911774 13.08042733067169 1023.7883165318315 38.30259980067073 0.3497720406763746
1.2789847243046926 13.082875656760377 910.0133575144462 40.04907751382822 0.355232482684517
1.3060107989682082 13.084480079705774 809.7055493215136 41.877521028009156 0.36083255498863986
1.3330317293337584 13.085224929291071 721.2503312610679 43.790968059761546 0.3665718097779097
1.3600251176608154 13.085057821886911 643.0710234955445 45.79490738876307 0.3724625042816628
1.386942936525166 13.083844639050067 573.9494495727058 47.89424860824739 0.37851230610029324
1.4137768230528267 13.081562556091713 512.7890098606697 50.0932441215778 0.38472436691334866
1.4405044742382924 13.078189658947393 458.6212397800938 52.39803210698947 0.3911104939431822
1.4670749461896175 13.073605792792707 410.61580307689303 54.814538280775416 0.3976799111888915
1.4934804684845275 13.067799777250187 367.97950054669406 57.34892257960189 0.4044416294825818
1.5196826929692921 13.060714911913559 330.1186466979473 60.00778037071462 0.41140536562430996
1.5456586256012068 13.052277308493283 296.46378837059643 62.79818162403003 0.4185816004407501
1.571369787577512 13.04245879333408 266.5467204618781 65.72771383055395 0.42598164157352736
1.596783382731486 13.031182203796796 239.8601026594148 68.80452904684532 0.4336176915507915
1.6218765149870351 13.018432566776944 216.105625607769 72.03739549242285 0.44150292176336026
1.6466156891042352 13.00416429533936 194.87948496295508 75.43575418049754 0.4496515530417915
1.6709810215197987 12.98831471621661 175.95849413981165 79.00978112302688 0.4580789436141824
1.6949111568214241 12.970842501458904 159.02179543862977 82.76947939926617 0.4667976767935751
1.7184011802870647 12.951713429290802 143.87220775609404 86.7269319811778 0.4758267927490516
1.7414026796759734 12.930880171490164 130.32331534060356 90.89488517965917 0.48518552785621644
1.7638866463153486 12.908311537223573 118.17046860119844 95.28575743621447 0.4948893129203075
1.785820090684957 12.883955167194461 107.2722999729027 99.91478995188064 0.5049620546649145
1.8071583456894034 12.85776987708362 97.49426744322244 104.797602604724 0.5154260896735672
1.8279075313659592 12.829789834170384 88.70156602343407 109.94980938336913 0.5263007271677789
1.8479835106474913 12.799875158084081 80.80265062547757 115.39045895261813 0.5376149163066994
1.8674011326016136 12.76810553477703 73.69223425879416 121.1390452280542 0.5493955507109168
1.8860931940372112 12.734371146618983 67.29020317792504 127.21675648472981 0.5616718580170992
1.9040214258658341 12.69860784749067 61.51929184393752 133.6466867331546 0.5744757476983782
1.921197739602962 12.660941132009984 56.309892501143096 140.45305949789628 0.5878386585035905
1.9375594966182903 12.621237317684562 51.610485999382185 147.66360981836743 0.6017994819674061
1.9530751859070756 12.57946918139905 47.36174890847641 155.30810203578986 0.6163987314271338
1.9677292314014252 12.535676656867356 43.5191521260082 163.41779621252647 0.6316762474031287
1.9814907235414376 12.489839025736012 40.04507216728046 172.02813365884867 0.6476797575316853
1.9943306471719238 12.44192928162796 36.894621853979785 181.1774575146035 0.6644597299972683
2.00619042830588 12.391857778845088 34.04350563780393 190.90731262185318 0.6820696355007883
2.0170822049010826 12.339723142316636 31.455508557481245 201.2634082927108 0.7005682825992784
2.02696974842829 12.285494028312602 29.109837760016568 212.29608029440047 0.7200203281546965
2.0358261384013954 12.229162752201193 26.977056267476105 224.05961865893542 0.7404929633792849
2.043631719000478 12.170744067737392 25.04075598087133 236.61513774747775 0.7620640638801695
2.050347829651839 12.110196599278682 23.279969792318795 250.02822841795464 0.7848130708596253
2.0559686349019923 12.047569133019541 21.678029211819073 264.3727906366604 0.8088318845259536
2.0604796543636805 11.982896368198329 20.220141896588835 279.7294565126722 0.8342178719022543
2.0638562225259376 11.916172329647225 18.892766768078886 296.187727496243 0.8610787249334875
2.066082085400122 11.847428758605801 17.68396472706388 313.8453539313213 0.88952798979094
2.0671432170168664 11.776699508853158 16.584168658476656 332.8133877788371 0.9196988441890694
