M[M_sun], R[km], Lambda[1], P_c[MeV/fm^3], rho_c[fm^-3]
0.24162668629717493 15.618656898711224 2160425.4255784233 3.5677272577965504 0.1711233750220791
0.2536440489414766 15.27726512629447 1723150.7866088285 3.784820683651645 0.17388818648549542
0.2660401366770467 14.981247939883861 1382972.7884240185 4.011403751721448 0.17666668852036546
0.2788150783665214 14.723514773635758 1116486.401736098 4.2477325207420495 0.1794575641632179
0.29196949298402686 14.498419179040628 905864.7677582114 4.494432156829814 0.18226737932413228
0.3055046984138992 14.301231159346024 738625.5723834524 4.751657804870578 0.18509183125634462
0.3194215268941968 14.12814488202444 605112.1515602025 5.0200925312183955 0.1879375558954586
0.3337192414639455 13.9759784902575 497687.64994295785 5.299959283834842 0.19080115460470884
0.3484004914862796 13.84203089330126 411008.0572902995 5.591987990683273 0.193688950563166
0.36346434287175994 13.72395764378264 340650.0054725029 5.896344280695043 0.19659597627532277
0.3789162144259661 13.620004083168093 279397.75453917775 6.213892923617673 0.19952992696319619
0.39474915873889116 13.528437864816977 236411.0326702946 6.544892157498686 0.20248699559859634
0.41097318775034836 13.447879495982606 195365.3601105006 6.890042757824846 0.20547086593773362
0.4275815154993697 13.377060565297409 166079.86372266713 7.250050555141319 0.20848462493024805
0.4445765698486175 13.31492939746879 139803.8866657292 7.625175785725832 0.21152383945356304
0.4619577568055484 13.26057811608402 117982.78571425064 8.016364934493511 0.2145946324976219
0.4797226193292301 13.213154400317363 99807.90875354108 8.424324166483656 0.21769867018163455
0.4978800214130812 13.171982635390878 84643.9867167903 8.849496159934365 0.22083344665846116
0.5164177601272 13.136405227753235 71938.31130177027 9.292750597130748 0.22400231865133097
0.5353361561253891 13.105846179548799 61277.27195368508 9.75497399284916 0.2272082303762346
0.5546441653151785 13.07981210552259 52300.96124766635 10.236975921327517 0.23045253274709324
0.5743253302850575 13.057839810729726 44731.54662781894 10.739229845056473 0.23373195167582217
0.5943820802972828 13.039521733223916 38330.45938573397 11.262975896744997 0.2370526179995748
0.6148188944588665 13.02450142512865 32901.84879565953 11.809153834723118 0.2404161748170594
0.6356221783267961 13.012454901614934 28060.591166264625 12.378742651063726 0.2438242550549796
0.6567928911375525 13.003014280352684 24371.339551205296 12.972434622571072 0.24727484634652333
0.6783249950611755 12.9959768606232 21028.52977679736 13.591550005450316 0.2507726612344147
0.7002120749256002 12.991065973997085 18172.96096312676 14.237289579266053 0.2543203722869366
0.7224458696282078 12.988005483856654 15730.322415434644 14.910843014645625 0.2579199640918227
0.7450345093225708 12.986649115291817 13634.607388833032 15.61324323637435 0.26157136605672743
0.7679540041390542 12.986762483108526 11836.549427777607 16.345749929798234 0.2652764086367025
0.7911984857972372 12.988144579455113 10289.069009707748 17.10998220774272 0.2690398140469225
0.8147732191944289 12.990666773927316 8956.725883703046 17.907395092710416 0.27286401482011985
0.838655957847487 12.994130357629514 7807.705622007905 18.739355228412904 0.2767501042077771
0.862836279179559 12.998404791451561 6814.785315854852 19.607204388323005 0.2806985394656857
0.8873161417851522 13.00335673853852 5955.582830269826 20.513029616272533 0.2847156923874362
0.9120719079341244 13.008841760655647 5211.25184719852 21.45862500164147 0.2888045762446238
0.9370911829754411 13.014744072694743 4565.323248699227 22.445476226004576 0.29296512549328757
0.9623702061274524 13.020948566424604 4004.5730570747437 23.475605509925064 0.29720111457351683
0.9878942337100204 13.027332542641021 3516.658224088718 24.551436625970283 0.3015186557805774
1.0136365910385539 13.033788977196116 3091.888827390538 25.674913436171998 0.3059193926222903
1.039601020887126 13.040251449653129 2721.441442667372 26.847993944627174 0.3104045614761134
1.0657513363006017 13.046567389587128 2398.381312223131 28.073776366386543 0.31498290866799983
1.092081773129176 13.052698521750012 2115.824680124943 29.35431652981639 0.3196548859286797
1.1185806432375145 13.058533754599308 1868.625550805627 30.692368276298208 0.3244251658884172
1.145212075593642 13.063987948138314 1652.1789206241413 32.09133360862251 0.32930182112440515
1.171974260785147 13.069005026882573 1462.0866365949003 33.553149716646814 0.3342825244083517
1.1988311772434253 13.073458530641544 1295.5520033433731 35.082360634521514 0.3393808542431063
1.2257752526492294 13.077330445967958 1149.0711362582908 36.68099155193199 0.34459358437735643
1.2527712257056085 13.080493598429587 1020.2160832966218 38.354093417532944 0.3499351438789271
1.2798117062923797 13.082940365980418 906.6366895793836 40.10390211205716 0.3554020916757225
1.3068570158174173 13.084516617657693 806.7566690824844 41.93589667043708 0.3610090333995705
1.3338930829398004 13.085238859334309 718.6021867896043 43.85354877021388 0.3667578320137342
1.3609011009566254 13.0850319888034 640.6325692676334 45.861562117728916 0.37265632717913494
1.387832033214068 13.083773702077094 571.8245847789719 47.96526185667854 0.37871443272890365
1.4146886646250603 13.081484422387941 510.85457683031376 50.169393990118614 0.384937747236889
1.4414120709241611 13.07803252980607 456.8986197795721 52.47919778762756 0.39133334449206186
1.468006420173108 13.073438983810624 409.0305326126944 54.90107890072584 0.39791286297380696
1.4944149032862917 13.067573404808867 366.54739330995363 57.441226342807234 0.40468536227234586
1.520626733865126 13.060428023621965 328.84232441292335 60.106267159862384 0.4116606119476066
1.5466102349866493 13.05194237159512 295.30072868416437 62.903305862072166 0.41884914998431483
1.5723264805030095 13.04206209546804 265.47731060019805 65.8399676306136 0.4262623460192658
1.5977502262136467 13.030736255110725 238.92802831278544 68.92444568290792 0.4339124698993419
1.6228368678249145 13.01791618857309 215.24519608395693 72.16555322718922 0.4418127661972679
1.64758936703648 13.003578783318336 194.1026238086414 75.57278049128537 0.449977535387863
1.6719378956847604 12.987646483259992 175.2410082907811 79.1560676560129 0.4584210126277415
1.6958746461628538 12.97009954157659 158.36683433608633 82.9255977982787 0.4671564364198153
1.7193558100274937 12.950889988591705 143.28318338471192 86.89411031936118 0.47620536943172964
1.742341341331608 12.929949122875332 129.78118684632892 91.07319307023923 0.48558219727998186
1.7648218920987644 12.907304662076038 117.6850785814152 95.4769110182092 0.49530874656172474
1.786748499460535 12.88286898400572 106.82534752109817 100.11895562003288 0.5054026353193103
1.8080869948953857 12.856617888573092 97.08639478425215 105.01583816427453 0.5158895133417124
1.8287974335766872 12.828484795507583 88.33359841826295 110.18409759467212 0.5267919149240613
1.8488773909207221 12.798522905924852 80.4672570470675 115.64135402894672 0.5381331789571594
1.868264341492418 12.766618788626982 73.38227857342177 121.40783235811308 0.5499427028082223
1.8869337986675043 12.732769468078901 67.01061809880937 127.50494335534914 0.5622502467669488
1.9048571989586622 12.69695724195404 61.25790936944761 133.95513239544806 0.5750851315198033
1.9220006127692681 12.659143156758006 56.07708118192013 140.78405509282118 0.5884835637937674
1.9383155715189266 12.619259699107607 51.394799405944404 148.0194030304247 0.6024838679126143
1.9538117992834236 12.577418227879358 47.16208512691431 155.6896972702027 0.6171218925945675
1.9684300004201158 12.53349192290747 43.34103223596673 163.8285537055529 0.6324451400050887
1.98214609858055 12.487496820058668 39.88069398695193 172.46972174313598 0.6484951016470795
1.9949372553564138 12.439424229568836 36.74683738112735 181.65252562909185 0.6653250731550012
2.0067735895900594 12.389268286343663 33.90490256643022 191.41894264766262 0.6829893989342651
2.017622686958813 12.336999010615191 31.32956548730806 201.81499970387907 0.7015473029440961
2.0274618128215303 12.282616470633775 28.992384020557555 212.89065714301674 0.7210615123485178
2.0362750994020478 12.226155514003075 26.86237178168069 224.70135352254647 0.741602217368577
2.044018261720034 12.167566928438522 24.943713656057188 237.30828167159345 0.763246666214214
2.050679684310673 12.106865690153564 23.188344075536353 250.77827709726347 0.786077376382095
2.0562539601908716 12.044124942254378 21.594280475804172 265.18442964756946 0.8101824989953388
2.0607032005088826 11.979279049767053 20.142727541410384 280.60847929452206 0.8356617514597521
2.0640108541612325 11.912387273188305 18.822217126947287 297.14012006048955 0.8626220153556339
2.0661735888499004 11.843492526891193 17.61978325310208 314.87973648474355 0.8911838328115789
2.067168120191392 11.772607294856916 16.524746204122525 333.9367224098776 0.9214730615074607
