M[M_sun], R[km], Lambda[1], P_c[MeV/fm^3], rho_c[fm^-3]
0.24162668629717493 15.618656898711224 2160425.4255784233 3.5677272577965504 0.1711233750220791
0.2536449516173881 15.277271350215575 1723283.2267689228 3.784838005735931 0.1738884023969196
0.26604151752962113 14.981259816287594 1382874.9413912436 4.011440166373035 0.17666712856993944
0.27881718221061025 14.723487484361584 1116317.1661567544 4.247789260103638 0.1794582222543079
0.29197358663037304 14.498365686986563 905865.0158157572 4.494510709969803 0.1822682540315773
0.3055102649246405 14.301149505418273 738589.4597987464 4.751760839244168 0.18509294422422345
0.31942841666685395 14.128042683086367 605018.0495871732 5.020220805994398 0.18793888679576914
0.33372550730624284 13.975942698836658 497652.69715308136 5.300116176382032 0.19080273425232724
0.34840971416515615 13.841941318260577 410945.2505850563 5.592173892919867 0.193690749218445
0.36347407310400154 13.723908128146489 340624.1494413772 5.896563369459921 0.19659803400336662
0.3789276989479696 13.619986959201155 283255.97033564356 6.214147850470058 0.19953225158913804
0.39476271941051944 13.528373561157043 236379.19787756578 6.545182657954694 0.20248954289514864
0.4109890493922909 13.44780137271429 197840.27784692586 6.890374440346709 0.20547369068527496
0.4275984880993867 13.376995376597462 166051.76885825073 7.250426532520061 0.20848773529474762
0.44459552098702104 13.31486893785262 139773.14934158322 7.625595018979252 0.21152717681982636
0.4619786524294122 13.260509327249986 117956.49033632771 8.016834736529749 0.21459826679619082
0.4797451498226403 13.213101392894757 99792.79305707074 8.424848201130958 0.21770261018959527
0.4979040779827131 13.171933438014893 83748.8603081051 8.8500724951443 0.22083761957163017
0.5164446765733502 13.136356054106775 71926.806148205 9.293388560428511 0.2240068099527196
0.5353647978908184 13.105801599830585 61261.32634451265 9.755677910248702 0.22721304976735707
0.5546726911228066 13.079793514559254 52292.668820685605 10.237749870831406 0.23045768378206952
0.5743578865177543 13.057821864033277 44719.496637382 10.740071483507478 0.23373735525538458
0.5944168889286863 13.039495262368641 38319.96662734679 11.26389737116197 0.23705837538840732
0.6148570041353578 13.02447301413752 32892.7837963688 11.81016058932171 0.2404222975647518
0.6356623662269484 13.012429731346247 28284.497206923694 12.379840469735349 0.24383075532079568
0.6568346452788152 13.003005301118254 24364.18843609466 12.973618463920102 0.24728161269821738
0.6783683582981754 12.995967015928988 21021.905451532213 13.592836681548686 0.2507798251022093
0.7002586704597593 12.991059761554931 18167.103853900484 14.238685989818581 0.25432794788233587
0.7224954514140706 12.988000985783511 15724.753851675676 14.912356502707738 0.25792796647372074
0.7450854196235335 12.986653530995856 13629.875431044558 15.61486684874285 0.2615796648861705
0.7680083979363026 12.986756354351456 11832.881396431909 16.34750565532586 0.2652851604881065
0.7912549050720439 12.9881458781966 10286.913824118805 17.11187885904193 0.2690490368199306
0.8148316472628616 12.990677346575657 8953.281775674248 17.909442066700272 0.27287372756533607
0.8387173759411262 12.994140644596616 7805.292363482533 18.741543445578678 0.2767601579334399
0.862901640622733 12.998412549800829 6769.628277904733 19.60956230319866 0.28070911794267367
0.8873829234757966 13.003365956414079 5953.291406651103 20.515568578740975 0.28472681851464526
0.9121425404628218 13.008854811209762 5209.342542490576 21.461357138853206 0.28881627446497304
0.9371641722804438 13.014750921826153 4563.694101862014 22.44839015627276 0.2929772283006813
0.9624492997670662 13.020967572747875 4003.0787688690752 23.478737804247306 0.2972138357514548
0.9879722315972299 13.02735057702087 3515.2646380698657 24.554802029465826 0.30153202493103315
1.0137176539043287 13.033806076200094 3090.7259961281034 25.67849892102614 0.3059332296988678
1.0396847002158547 13.04026027665825 2720.3765151485673 26.851843348165083 0.31041910382951926
1.0658376725593428 13.046590270356367 2397.264581174252 28.077907709623947 0.3149981923030807
1.092172099026759 13.052731028783159 2114.7585878767936 29.358715169546056 0.31967071833092797
1.11867237697866 13.058556914181352 1867.678250004905 30.697086732839594 0.3244418105496153
1.145304512775525 13.064012497275192 1651.3854527513422 32.09635648079827 0.32931907921846804
1.1720707397702528 13.069022522888105 1461.4172725667736 33.558535927905325 0.3343006764956345
1.1989286840265918 13.073477636822645 1294.8850893860472 35.08813560955507 0.339399950519943
1.2258769388821598 13.077347414853715 1148.5958012191074 36.68713853089026 0.3446134135799439
1.2528749010981897 13.08050482149821 1019.7362090519521 38.360637348899104 0.349955750091455
1.2799189996824263 13.082939170246869 906.3312251987077 40.110917382137075 0.3554237945776994
1.3069651444376322 13.084522086840787 806.4355486163614 41.94336649752019 0.3610316158185166
1.3340042984019531 13.08524047975652 718.3008401021526 43.86155691229141 0.36678163635349476
1.3610129628721417 13.085029145994731 640.34507988375 45.87009179357966 0.37268113031784
1.3879461799264863 13.083766686922475 571.5604264902952 47.9743495028529 0.3787402991034719
1.4147972481455826 13.081453788533642 510.59720006789297 50.17913926656279 0.3849650545754373
1.4415293808059377 13.078018614280715 456.6929531602438 52.48958522250487 0.3913618644963994
1.4681245895171577 13.073416251400971 408.824301998694 54.912154493440845 0.3979426764774939
1.494535152762683 13.067542854754416 366.3737686535239 57.45303981902267 0.4047165563582077
1.5207472201041357 13.060391874418075 328.69639048450983 60.11887230514568 0.41169328046097803
1.5467335441742396 13.051896737585475 295.161095741001 62.91676088883701 0.4188833940971534
1.5724481855688732 13.042013078698062 265.3411985832611 65.85433558206294 0.42629827485059124
1.5978623541486152 13.030671632466595 238.80541439600708 68.93979487813867 0.43395020119810296
1.622959960145779 13.017848956851202 215.13464903485243 72.18195775212848 0.44185242709446304
1.6477118453336856 13.003502057833598 194.0027511111946 75.59032074070858 0.45001926322556646
1.6720603526173323 12.98756244249323 175.14419770508457 79.17473933138794 0.4584645734327736
1.6959976868290947 12.970000944801411 158.2882583078495 82.94558309332717 0.46720236256963005
1.7194779773519613 12.950783030869784 143.21123090463777 86.91551212564706 0.4762538339930781
1.7424582410693834 12.929829036042525 129.71751103721397 91.09602029563264 0.48563297945408257
1.7649414418432858 12.907176961009156 117.61917111210363 95.50138359370787 0.4953624448568294
1.786866454824398 12.882737265761875 106.76770177668229 100.14509485547563 0.5054590426553771
1.8082037408304723 12.856465683997147 97.03836544568128 105.04377962088316 0.5159488470833884
1.828917597012191 12.828331434704463 88.29009795669711 110.21398913786842 0.5268544101895023
1.8489902548317274 12.79834263223169 80.42279392172844 115.67347922198086 0.5381995385204161
1.868363237634561 12.766396572686283 73.34838290862136 121.44224965606509 0.55001276381432
1.8870397005532091 12.732566952555072 66.97231769905929 127.54174135351846 0.562323936222895
1.9049619610737458 12.696738134420967 61.22556463775334 133.99459621535988 0.5751630453537165
1.9221009117391548 12.658908946180274 56.045722810832395 140.82644238082764 0.588566150349875
1.9384122887163135 12.619009010298896 51.36607971095234 148.06496765576654 0.6025715137364408
1.9539057634031296 12.577151939586553 47.142506166572154 155.7385679652995 0.6172145074538015
1.9685188843870123 12.53321294868897 43.3209559537879 163.8810266632844 0.6325431599262118
1.9819990980404807 12.487741443572851 39.90754174263942 172.6079522754865 0.8706673936917213
1.9836866135004654 12.449653055771847 38.4833783219774 184.6089340999732 2.011323542408802
