M[M_sun], R[km], Lambda[1], P_c[MeV/fm^3], rho_c[fm^-3]
0.24162668629717493 15.618656898711224 2160425.4255784233 3.5677272577965504 0.1711233750220791
0.2536436720991158 15.277295051519365 1723207.963987578 3.784813438114792 0.17388809617337392
0.26603818586430433 14.981302274615675 1382908.907208004 4.011388520154592 0.17666650445586907
0.2788143826381711 14.723505757510571 1116472.0175878583 4.2477087878351645 0.17945728889726276
0.2919676799834732 14.498473537948488 905968.4388884522 4.494399299810927 0.18226701345360125
0.305503725524631 14.301203577149323 725457.7903748744 4.751614708089509 0.18509136572885762
0.31941855154565363 14.12817213617224 605126.550643765 5.0200388772117694 0.18793699921443133
0.33371564293868666 13.976013337527755 497701.1146400542 5.2998936600391495 0.19080049388197579
0.348396594662355 13.842063851406014 411028.06366506993 5.591910233250753 0.19368819823861605
0.36345853816665163 13.724029207971519 340671.3460306147 5.8962526426984745 0.19659511559186632
0.37891163574075704 13.620028820807988 283323.5067035936 6.213786296110151 0.19952895464871548
0.3947428639263595 13.528493541908086 236411.2451190229 6.544770651185459 0.20248593015237634
0.410967243977035 13.447897108875779 197884.19432283798 6.889904027040296 0.20546968444815628
0.42757467787143244 13.37710798671612 166100.7351729552 7.2498932980595505 0.2084833239827121
0.44456873601059577 13.314964073146859 139811.16898330682 7.6250004369877376 0.21152244356485894
0.46194952821989066 13.260611606289546 117994.77622112687 8.016168435610464 0.214593112419899
0.47971317073889974 13.213182460031064 99826.66115370566 8.424104985197486 0.2176970222447724
0.4978694235193067 13.172005934076745 84652.2116460085 8.849255104399123 0.22083170131339092
0.5164063374980695 13.136435835021874 71944.87176890463 9.29248376633538 0.22400044014589662
0.5353235982276833 13.105867922282288 61282.423785432504 9.754679577625577 0.2272062146537709
0.5546297073260121 13.079829589832158 52304.984827374676 10.236652002575633 0.2304503755745668
0.574311158553174 13.057856811673773 44734.31842948721 10.738877830201654 0.2337296916314137
0.5943659722976603 13.039575439294403 38332.636507203155 11.26259049202378 0.23705020998390222
0.6148030421496227 13.02451347497213 32906.538071867806 11.80873276336809 0.2404136140006788
0.6356038895337245 13.012454713752108 28298.236672846757 12.378283494266656 0.24382153635351334
0.6567748464629013 13.003025600474922 24374.40464901179 12.971939488851344 0.2472720163652205
0.678306107775638 12.995984773741922 21030.650910865425 13.591011863846314 0.2507696650061404
0.7001931274289552 12.991070034876797 18174.87242383508 14.23670554437602 0.25431720386915435
0.722424405983388 12.988010249802329 15732.218630508056 14.91021001567629 0.25791661718766107
0.7450125147648453 12.98665325184277 13636.209206717702 15.612564181337813 0.26156789517781565
0.7679317257782295 12.986747283600929 11838.0855679089 16.345015622947912 0.26527274830122416
0.7911746441134921 12.988137932230499 10290.484519341368 17.109188963778394 0.2690359567701389
0.8147487969606446 12.990660153151996 8957.697981389574 17.906538982002527 0.27285995263602575
0.838629276679801 12.99411858255167 7759.22676822717 18.73844004813306 0.2767458994279183
0.8628092416285096 12.998387082077711 6815.727663127498 19.606218239029484 0.28069411523573745
0.8872830702864396 13.003341878976633 5956.359021349298 20.511967751702652 0.28471103913224627
0.9120406551367569 13.008846455813757 5181.364931980127 21.45748235052186 0.2887996837434265
0.9370613566352393 13.014724093269873 4566.119073909191 22.444257548165545 0.2929600637993542
0.9623369135196679 13.020926762081567 4005.1919117424645 23.474295512027716 0.29719579428281745
0.9878605596097251 13.02732389527948 3517.167258924186 24.550029142057127 0.3015130645151544
1.0136029125964854 13.033783675514865 3092.490359145292 25.673413914370343 0.3059136056788661
1.0395657481917016 13.040232474042437 2721.9341197831095 26.846384053260326 0.31039847959642186
1.0657155122988957 13.046560413002839 2398.7916708005964 28.072048569726537 0.3149765167968509
1.0920449447812397 13.052689439408068 2116.3030759530675 29.352476951407507 0.3196482645759146
1.1185427830661898 13.058524609174217 1868.9691798607762 30.69039495383485 0.32441820486555956
1.145170837424222 13.063983107710284 1652.4393826243945 32.089232982530824 0.32929460358005747
1.171933595372152 13.068997255321833 1462.4067220183344 33.550897147329 0.33427493301750105
1.1987884205973465 13.073461700514056 1295.6929327669775 35.07994549057421 0.3393728680168196
1.2257329701839295 13.077322866181063 1149.32754329101 36.67842084180332 0.3445852916644187
1.252727611742291 13.080493328500703 1020.4128936033767 38.351343971021386 0.3499264515222609
1.279768300696624 13.082928970556917 906.9299915595377 40.100968300008766 0.35539301544136803
1.306810963841661 13.084524540877515 806.9211253563841 41.93277277245504 0.3609995893827023
1.3338476248094568 13.085240165096423 718.7697511314528 43.85019976311152 0.36674787703264705
1.3608545465794042 13.08503543723868 640.7787585899101 45.85799501864656 0.37264595453955723
1.3877836417182563 13.083779687696568 571.9222848881084 47.96146142988503 0.37870361548744486
1.4146404083394857 13.081492241478122 510.93239747659453 50.165318563871566 0.38492632744342353
1.4413623526239685 13.078042281184528 456.9791691676476 52.47485383140385 0.3913214176158113
1.4679561162295895 13.073448984565061 409.12061194817426 54.89644718050153 0.3979003952159598
1.4943651040865278 13.067585567582274 366.6293735819527 57.43628606660345 0.404672317221315
1.5205760912423831 13.060442831144814 328.9235692214818 60.10099583825924 0.41164695036446675
1.546559093421549 13.05196216277541 295.3570109110265 62.89767915480659 0.41883482956698087
1.572274451126646 13.042086237741763 265.522320799978 65.83395917770765 0.42624732114312075
1.5976987869175796 13.030760003151888 238.97780013090588 68.91802691859183 0.43389669133177233
1.6227860786068211 13.017945669005146 215.29187552912762 72.15869317466601 0.4417961807832505
1.647536926537699 13.003611963108225 194.14482285304584 75.5654455361434 0.44996008570340634
1.6718871928782528 12.987679537692845 175.27494894728457 79.14825959486332 0.45840279651040955
1.695824197401613 12.970139752178955 158.40376935021064 82.91724045401537 0.4671372312670387
1.7192895537459818 12.950899952917345 143.32207887737607 86.88516067221354 0.4761851028842504
1.7422911353372676 12.930000922301804 129.81383961778235 91.06364739492291 0.48556096166603985
1.7647709161531397 12.907358246406043 117.70947076034422 95.46667736141032 0.49528629163364346
1.7866991494237514 12.882928541494199 106.84966925776176 100.10802507112693 0.5053790476689797
1.808037229770692 12.856680538828751 97.10831933894198 105.00415404492739 0.5158647020897879
1.8287512079007562 12.82855301996774 88.35333412611422 110.17159808265717 0.5267657817694053
1.8488303753899746 12.798596384656289 80.48386854226071 115.62792057011842 0.5381054300667505
1.8682185428230331 12.766695488585528 73.39960305410199 121.39344051187837 0.5499134062833118
1.886889385601645 12.73285501869368 67.0239721623498 127.4895123235894 0.5622192768093334
1.9048138828445427 12.697048715959069 61.271947164219945 133.93863048566877 0.5750525516261015
1.9219580508759524 12.659240911370407 56.087982861023406 140.76633083286137 0.5884490301951704
1.938274003048883 12.619362055992962 51.40515747979841 148.0003502837722 0.602447219006495
1.953774188055435 12.577529222646206 47.17498346953853 155.66926221464274 0.6170831661187035
1.9683920124059142 12.533611355820469 43.34984665110011 163.80661251095697 0.6324041536712395
1.9821106230595118 12.487622726715374 39.8898824209811 172.44607239568006 0.6484514357127683
1.994903672793842 12.43955730283351 36.754914837843685 181.62708240134614 0.6652787279628721
2.006743380929907 12.389407473570447 33.91280694025553 191.3915403229109 0.6829401374464176
2.0175942217512373 12.337145412846057 31.335300783978134 201.78545602933588 0.701494865836025
2.0274340894455856 12.282771836153469 28.99846629897542 212.85884535129992 0.7210058595221482
2.036248321622471 12.226318117475534 26.876772113588245 224.66697918379813 0.7415428005057136
2.0439979763237672 12.167736243482045 24.948748310646938 237.2711773300522 0.7631833999034233
2.050661839361936 12.107044086187194 23.1936886320557 250.7381622784037 0.7860098588756724
2.0562391654061725 12.044311214816984 21.59839743395781 265.1409492586249 0.8101101451019778
2.0606911653689197 11.97947674221134 20.147016236312396 280.56145565237097 0.8355846217419675
2.0640028370758823 11.912590876692695 18.826361093644646 297.0891029968005 0.8625393585711633
2.0661684039681174 11.843703248101244 17.622701161961817 314.8243163551696 0.8910951160844315
2.067165834166333 11.772824929234046 16.527479065886993 333.87653370980763 0.9213779982635396
