M[M_sun], R[km], Lambda[1], P_c[MeV/fm^3], rho_c[fm^-3]
0.24162668629717493 15.618656898711224 2160425.4255784233 3.5677272577965504 0.1711233750220791
0.2536450276484417 15.277275103028536 1723213.931256345 3.7848397135956793 0.17388842368456744
0.26604189987069565 14.98123373769557 1382913.2921144988 4.011443756664965 0.17666717195649856
0.27881809071060903 14.723490411047338 1116413.1262260815 4.2477948543237 0.17945828713883033
0.29197380505800813 14.498368406377569 905871.2566472645 4.494518454946379 0.182268340273689
0.30551111862857094 14.301147708126862 738573.6741147557 4.751770997991827 0.18509305395808642
0.3194281895511485 14.128073292236213 605003.05360845 5.020233453378298 0.18793901801725854
0.33372652598792485 13.9758971128701 497635.8701546017 5.300131645415934 0.19080288999983086
0.34841074689756624 13.841945224902876 410955.9357956287 5.592192222260265 0.1936909265598556
0.3634751980119567 13.723897299784994 340620.12991009513 5.89658497095137 0.19659823688914568
0.3789302153616523 13.619920104217352 283266.1636419445 6.214172985569779 0.19953248079098285
0.3947636668083805 13.528366610277272 236361.2950518337 6.5452113005999495 0.2024897940524532
0.41099064151042236 13.44779888988208 197838.6471870852 6.890407143547686 0.20547396919945785
0.4275997549256367 13.377002320036866 166050.13524190002 7.250463603217306 0.20848804197112553
0.44459726826699403 13.314859602158677 139778.77038783644 7.625636354744547 0.2115275058790969
0.46197880941195285 13.260502433920758 117948.8518119304 8.016881058443534 0.2145986251336436
0.479747048942149 13.21311020317072 99787.38042735016 8.424899870473448 0.21770299867081838
0.49790624851532944 13.171933202851173 84625.22396040973 8.85012932142835 0.2208380310182067
0.5164466430104204 13.136354610682169 71923.65484705432 9.293451463393355 0.22400725279351363
0.5353671579602266 13.105807342774797 61261.13099788102 9.755747316475329 0.2272135249591234
0.5546761459421092 13.079766674659933 52292.760672496486 10.237825490188277 0.2304581827742849
0.5743611433969826 13.057818337295364 44718.38704079401 10.740154469488859 0.2337378880510909
0.594420002378836 13.039494380887513 38318.64946555605 11.263988229281697 0.23705894307158357
0.6148591455772622 13.02448067283416 32893.13633895105 11.810259856432143 0.24042290127440674
0.6356656542510496 13.012414031684102 28283.43821506498 12.379948716186144 0.24383139625606304
0.6568388126277008 13.002998496312742 24363.759020945843 12.973735192619458 0.24728227987159604
0.6783721301893647 12.995968704475509 21021.49407631073 13.59296355029949 0.2507805314734236
0.7002621530061591 12.991055481637575 18165.894123224425 14.238823679007568 0.25432869485290605
0.7225005482155544 12.987988300282474 15723.815240513513 14.912505736443546 0.257928755528736
0.7450909911841834 12.986644420601815 13629.58289431959 15.615026941406605 0.261580483173674
0.768013675565018 12.98675568459838 11832.501161219237 16.347678775226903 0.26528602344739327
0.7912620951374856 12.988145143003859 10217.977242953606 17.112065875212515 0.2690499462162391
0.8148387961858289 12.990669960025578 8953.243126905607 17.9096439057959 0.2728746852774126
0.8387235045853081 12.994143223070342 7805.034138475136 18.74175921229417 0.2767611492698569
0.8629064935656628 12.998419521912899 6811.663619385713 19.609794803467476 0.2807101610247496
0.8873913098412847 13.003362018924422 5953.155107317587 20.515818931817115 0.28472791560064276
0.912149263301927 13.008857190734105 5209.3101592632665 21.4616265406444 0.2888174279654277
0.9371711142920971 13.014759647680084 4563.507545607487 22.448677484437784 0.29297842169829896
0.9622315684430105 13.020826372908685 4007.1515679435397 23.32781207412193 0.2966001744306842
0.976029586809469 13.014984298525361 3710.8125064231594 24.810535242565553 0.6917439157353664
0.9810228647600163 12.992385547915566 3560.277064992682 26.428527153360335 0.9502009399138838
