M[M_sun], R[km], Lambda[1], P_c[MeV/fm^3], rho_c[fm^-3]
0.24162668629717493 15.618656898711224 2160425.4255784233 3.5677272577965504 0.1711233750220791
0.2536421971500604 15.277364513050372 1723244.3065276383 3.7848063194055945 0.17388800744209795
0.26603836681934007 14.981316113057334 1383100.9380924609 4.011373555245075 0.17666632361376922
0.278811983017612 14.723609564016217 1116427.8507648061 4.247685470478286 0.17945701845106146
0.2919656612393253 14.498477758118034 905905.5254032381 4.494367018182004 0.18226665399017103
0.30550016073711567 14.301278452391356 738722.6469780426 4.751572366125243 0.1850909083548327
0.31941561073792124 14.128191299247245 605148.7639799343 5.019986163054158 0.1879364522847003
0.3337129302563292 13.976033513818534 497721.4614849648 5.299829185926973 0.19079984473464806
0.3483926232207943 13.84209469017628 411054.3115322132 5.591833838253145 0.19368745909599866
0.36345400227974967 13.724052216164743 340690.1730263367 5.896162610567012 0.1965942699910348
0.3789064027281832 13.620061846730808 283336.8126788498 6.213681537398611 0.1995279993754039
0.39473704547117755 13.52853047404551 236441.68296083537 6.544651274705019 0.2024848833819126
0.410961347203053 13.447945156557829 197903.23607730138 6.889767728333733 0.20546852367117563
0.42756744823182435 13.377126117707874 166112.00385985893 7.249738798204631 0.2084820458450073
0.444561004348588 13.314999224949952 139830.38147790197 7.624828163047171 0.21152107215352026
0.4619409174275266 13.260619990211586 118002.81960663416 8.01597538284932 0.2145916190007151
0.47970394272730843 13.213206492084963 99831.29350571029 8.423889648327782 0.21769540321254763
0.49785974492338697 13.172027412263834 84660.12868256692 8.849018277434833 0.22082998658498107
0.5163959622763059 13.13644484186172 71951.97010483606 9.292221616857601 0.22399859459722993
0.5353106458042474 13.105895759343735 61286.786174697634 9.754390328324407 0.2272042342999465
0.5546168579430083 13.07984236201059 52310.06071475049 10.236333768150146 0.2304482562574367
0.5742977744365564 13.05787068323783 44740.50348737787 10.73853199339634 0.23372747125199672
0.5943528914118298 13.03954697045933 38338.323457616745 11.262211852215529 0.2370478442355283
0.6147874632999231 13.024524472328824 32910.114129025395 11.808319083904891 0.2404110981393336
0.63558746656024 13.012471033252844 28301.59478357813 12.377832398964719 0.24381886538475797
0.6567580604262051 13.003029688021046 24376.730824146896 12.97145304920045 0.24726923607564996
0.6782881452932153 12.995988315659718 21033.458441414736 13.590483172671938 0.2507667213953263
0.7001739960945962 12.991072114207897 18177.91419963101 14.236131767144279 0.2543140910996689
0.7224059761122195 12.987999935546874 15734.326987500353 14.909588135738462 0.2579133290740103
0.7449915423931626 12.986639936579802 13637.82978255385 15.611897055575959 0.26156448527344306
0.7679076780785766 12.986761178545052 11839.064052628724 16.34429421762593 0.2652691522766288
0.7911521735135645 12.98812176180888 10292.103235265327 17.10840965860285 0.26903216727296514
0.8147232616588105 12.990665354229114 8959.008183422802 17.90569791667092 0.27285596184116634
0.8386037835569747 12.994122530969753 7809.866127607827 18.73754095298468 0.27674176855091576
0.8627833258341872 12.998379969808568 6816.800612205283 19.60524942441334 0.28068976877555424
0.8872547769543537 13.00333290229998 5957.1408247352465 20.51092455512655 0.2847064676830996
0.9120149267150586 13.008822762784899 5213.013983200605 21.4563597902336 0.288794877265351
0.9370312241406634 13.014722195023644 4566.704308653549 22.443060300139454 0.29295509111266343
0.9623054546919507 13.020923570422378 4006.0034115588055 23.473008552745164 0.2971905675587781
0.987830259834556 13.027312189021728 3517.899181737059 24.548646414454954 0.30150757159480257
1.0135695272435508 13.033769813842767 3093.230651223834 25.671940770527836 0.30590792053306637
1.0395307638701108 13.040231193991902 2722.4972006628313 26.84480248510496 0.31039250471672314
1.0656801573708072 13.046556687204259 2399.217107104906 28.070351174678336 0.31497023739448365
1.092009371976112 13.052680641799322 2116.4926409552145 29.350669744982213 0.319641759742414
1.1185052248822471 13.05852031789484 1869.2898748253342 30.688456361641595 0.3244113663559802
1.1451337909703079 13.063974333498575 1652.556708410706 32.08716933132639 0.3292875130777805
1.1718939890563598 13.06899123314084 1462.7151726289887 33.54868423288514 0.3342674752676642
1.1987482436846253 13.07344535256505 1295.948141045284 35.07757286948801 0.33936502240210653
1.2256918078248928 13.077318771545245 1149.5420625009067 36.675895398744984 0.3445771449760427
1.252685592695186 13.0804814272556 1016.1323689463993 38.34863665221163 0.34991787532977486
1.2797251446131084 13.082931747706766 907.0700189175498 40.098086162353006 0.3553840990703211
1.3067668243770005 13.084521903249714 803.7269717306763 41.92970390352713 0.36099031172700163
1.3338020722605493 13.085232393529306 718.8295221956146 43.846909759310726 0.36673809743988645
1.360808079871487 13.085033777076818 640.906026512017 45.8544907730416 0.3726357646693538
1.387738043774341 13.083782837678228 572.0665625431842 47.957727976344025 0.3786929888734822
1.4145928019361613 13.081496915669899 511.0437454855212 50.16131496831838 0.38491510892747816
1.4413151556788268 13.078048423875734 457.08616434032604 52.47058644884755 0.3913097009821618
1.4679073442387147 13.073456481644188 409.19051726820123 54.89189711747395 0.3978881472646006
1.494316665886904 13.067593912612898 366.7041877886883 57.43143289933999 0.4046595021858794
1.5205268277252755 13.060456154466348 328.98745738060836 60.09581747569812 0.41163352970149397
1.5465090344987964 13.051977774258459 295.42135612141306 62.892151687917234 0.4188207617242944
1.5722245325268158 13.042103883111855 265.58216920736385 65.82805671362824 0.42623256130508386
1.5976481204007775 13.030784950894768 239.03276996119735 68.91172139786883 0.4338811911389175
1.622729056162899 13.017943627079063 215.33845619146538 72.1519541696776 0.44177988802347645
1.6474868763811366 13.003641944964388 194.19042569167448 75.55824002855123 0.44994294397160295
1.6718363356153019 12.987717473635328 175.3138673018586 79.14058934902965 0.4583849019146329
1.6957738363912493 12.970177169159456 158.43661509123476 82.90903064432757 0.467118365148287
1.7192391220745966 12.950941976418559 143.35202562666106 86.87636904228819 0.4761651941680337
1.742241589064076 12.930049898843867 129.84004518392499 91.05427028510249 0.48554010104827944
1.7647222215185516 12.907409843222347 117.73370711023725 95.4566244509963 0.4952642333034893
1.7866502891545843 12.882987433439729 106.8731036140223 100.09728760714663 0.5053558766875419
1.80799015355946 12.856742119991937 97.13683636277926 104.99267635531092 0.5158403291918291
1.8287022531420154 12.82862200405123 88.3726800517757 110.1593148609207 0.5267400933464823
1.8487835828079806 12.798667538861485 80.50228401482879 115.61472453351912 0.5380781716087384
1.8681723656571985 12.766776259965411 73.41628117180844 121.3793030713466 0.549884627635183
1.8868457350327967 12.732938805372155 67.0396961285486 127.47435411710515 0.562188854409869
1.9047712494822633 12.697137619352365 61.28776809334329 133.92242038282185 0.5750205478498894
1.9219167856610317 12.659338548211878 56.101142958287575 140.7489200560302 0.5884151073809194
1.938233360579081 12.619464782519032 51.41616038407406 147.9816345845576 0.6024112184278917
1.953745906011603 12.577673956956389 47.184894502497336 155.64918872695293 0.6170451248501468
1.968355348852767 12.533728199592957 43.359252806999535 163.78505960803128 0.6323638926694571
1.9820767436469333 12.487746574853814 39.898188914480514 172.42284166169566 0.6484085427024621
1.9948715399466568 12.43968773322679 36.763312475015205 181.60208963385344 0.6652332032903399
2.0067065735413983 12.389532685010204 33.91968899513692 191.36462324794078 0.682891748297922
2.017566559996102 12.337289433817485 31.342528423935498 201.7564356414116 0.7014433575100847
2.027408011993315 12.282924314715077 29.004564196548078 212.82759713971492 0.7209511926455014
2.036225650217501 12.226476395781484 26.882316524704404 224.63321397019013 0.7414844365301564
2.0439770634183523 12.167902988003023 24.953244714526477 237.23473064237535 0.7631212549528845
2.050644796668481 12.107218661126545 23.19839003066051 250.69869172709258 0.7859433204480419
2.0562190768117294 12.044470511467336 21.602856926645085 265.09823992813773 0.8100390742946872
2.060680387516455 11.979664400491957 20.151294730448527 280.5152661065504 0.8355088601362992
2.063999952765931 11.912802754028064 18.829694573865375 297.0389911098787 0.8624581683352461
2.0661630392122943 11.843909379199792 17.625112750150233 314.7698798019212 0.8910079738695269
2.0671656051796985 11.773039891940698 16.53046489337751 333.8174135140218 0.9212846226367838
