M[M_sun], R[km], Lambda[1], P_c[MeV/fm^3], rho_c[fm^-3]
0.24162668629717493 15.618656898711224 2160425.4255784233 3.5677272577965504 0.1711233750220791
0.2536443066200907 15.277265335020825 1723226.618609458 3.784824464389303 0.17388823361056643
0.26604037773996186 14.981274119397499 1383047.0204190204 4.011411699604205 0.17666678456583806
0.2788156189424473 14.72348913775877 1116458.4218250753 4.247744904677322 0.17945770779820486
0.291970597283353 14.498385422040453 905828.1628364676 4.494449301800254 0.18226757023735726
0.30550591373835917 14.301202928973128 738642.2659951648 4.751680293048781 0.18509207417158854
0.31942333763232833 14.128103886783263 605123.4927066496 5.020120528277166 0.18793784637574923
0.3337231696451052 13.975913954223678 497669.2472905166 5.299993526884231 0.1908014993753967
0.3484025278032583 13.842014764988253 410998.90959449473 5.592028565239318 0.19368934313315742
0.36346612873067924 13.723955503472316 340634.45181828446 5.896392098349161 0.19659642538884955
0.3789192792125522 13.61998588240842 283303.37086280365 6.213948563057398 0.19953043432789225
0.39475106221216816 13.52844565063827 236393.75598839024 6.544955560975565 0.20248755156143466
0.4109771953732232 13.447849376282269 197853.65482871977 6.890115149373438 0.20547148245453936
0.4275856818263069 13.377041828751693 166076.67137956683 7.250132614104694 0.20848530378302213
0.44458070279995315 13.314920963414606 139792.7960808759 7.62526728531962 0.21152456784916365
0.4619623880489652 13.260562909192283 117974.7468576908 8.016467470732541 0.2145954256983278
0.4797273712143907 13.213145993574303 99808.18865014239 8.42443853896452 0.21769953010280085
0.4978847197966333 13.171976235589913 84639.9140109544 8.849621946962976 0.22083435741029298
0.5164236636177335 13.136390292859476 71932.3860172025 9.292889834389065 0.22400329889030995
0.5353428544305264 13.105833961885482 61274.64382382445 9.755127624442725 0.22720928221944608
0.554649659860297 13.079826823152013 52298.147573391725 10.237144948731457 0.23045365840366566
0.5743315365824935 13.057838314935797 44728.219803205095 10.739413533854657 0.2337331310148062
0.594388943691724 13.039523811909557 37990.9153252771 11.26317700942982 0.23705387455526897
0.6148266779573112 13.024499616896895 32901.25666663367 11.809373559423907 0.24041751110984277
0.6356311568026938 13.012440010374432 28291.18088869614 12.378982250036389 0.24382567373827568
0.6568019834924844 13.003011541423101 24369.687381776057 12.972692995535795 0.24727632310043884
0.6783341614190888 12.995974413897727 21027.098464257262 13.591830821470571 0.2507742247427804
0.7002237325763611 12.991061724151344 18172.35817760621 14.237594344098378 0.254322025651026
0.722457508916888 12.987991319424392 15728.82456642599 14.911173330796984 0.25792171059782854
0.7450446573253673 12.986642834366728 13632.94007055183 15.613597586344644 0.2615731772587259
0.767965670457546 12.986757989529766 11835.431701820691 16.34613311237553 0.2652783187057448
0.7912115999051246 12.988143152654049 10288.354052722172 17.110396146128153 0.2690418268891196
0.8147868957922413 12.990665510435736 8955.652285761618 17.907841837614743 0.27286613459274706
0.8386680354918767 12.994138227691625 7807.022481741992 18.739832798314144 0.27675229839437204
0.8628504429486178 12.998408460148601 6814.37609355742 19.607718992988573 0.2807008481722759
0.8873296561966277 13.0033568652388 5954.98903157458 20.513583732594782 0.2847181206110774
0.9120873266473329 13.008857342105324 5210.903546320499 21.459221276129156 0.28880712931930674
0.9371075848054511 13.014736053742595 4565.101390093876 22.446112174747636 0.2929677668623119
0.9623912913624296 13.02094691849837 4004.2838179584464 23.476289113888022 0.29720389089232896
0.9879123545933269 13.027339036447389 3516.3580170432224 24.55217110295673 0.30152157350897196
1.01365205858975 13.03380235445317 3091.626621111803 25.675695943058326 0.3059224124670669
1.0396184744608754 13.040253334875953 2721.287816802786 26.848834048034057 0.3104077352355076
1.0657699620368322 13.046573167838485 2398.111401145992 28.0746779989798 0.31498624419902216
1.0921026575748363 13.052704092522251 2115.667560636219 29.355276495974092 0.3196583412174252
1.1186007343111022 13.058539255746494 1868.5156654421917 30.69339803742094 0.3244287984375045
1.1452308895030059 13.063994808571154 1651.9684477783035 32.09242980369999 0.3293055875427205
1.17199559851148 13.069014095746313 1461.95200573291 33.55432520433787 0.3342864859230684
1.1988521218404424 13.073470106599016 1295.4241023259294 35.08362096309383 0.3393850218080191
1.225797802111713 13.077337233052837 1148.9644950861195 36.68233306391255 0.3445979118873441
1.2527947048664614 13.080495987005937 1020.0971562316612 38.355521557294175 0.3499396409541244
1.2798357304709531 13.08293773623802 906.6526998432566 40.105433112445574 0.35540682807945007
1.3068799749863047 13.084521236334984 806.6928025636059 41.93752686925141 0.3610139617375603
1.3339181714581345 13.085232264302418 718.5501326100047 43.855296445296254 0.36676302700791
1.3609252008852653 13.085032727194353 640.5776834636305 45.86342360701303 0.3726617401371089
1.3878567059071079 13.083772109741263 571.7572369832571 47.967245111389786 0.37872007771202043
1.4147145059014954 13.081483804973677 510.789924683102 50.171520758025096 0.38494370667493766
1.4414368227075622 13.078030839672802 456.8340471472291 52.48146469244181 0.39133956856334595
1.4680320586091549 13.073434109084129 408.98084144123385 54.90349598038728 0.3979193693175533
1.4944410424659114 13.067567331194986 366.49946344234377 57.44380444835772 0.4046921698914104
1.5206522468147694 13.060420358568356 328.82038236554973 60.10901802824752 0.41166774132046213
1.5466368141885976 13.051933561708342 295.26756290104817 62.90624219620713 0.41885662318813727
1.5723533213260648 13.04205032364167 265.4417718108138 65.84310318752142 0.42627018686530777
1.5977770743358506 13.030723549800665 238.90229665300546 68.92779537083875 0.4339207040819277
1.6228641619585207 13.017900960380413 215.2163941871602 72.16913321274001 0.44182142145789965
1.647615887306573 13.003562438374843 194.08491588267745 75.57660831766415 0.4499866416961051
1.671965331933685 12.987627491950573 175.22260716804442 79.1601423854178 0.45843051892482517
1.69590212177445 12.970076284542122 158.3527097181932 82.92995918746531 0.46716645887946373
1.719382484375692 12.950865462065016 143.26500443163405 86.89878082036884 0.4762159458185818
1.7423633607003457 12.92991702211899 129.76992502368418 91.0781746271001 0.48559327941035213
1.764847786550561 12.907277671616372 117.67097895113857 95.4822516217683 0.49532046503843224
1.7867740612460628 12.882840160162235 106.81010509461781 100.12465992055886 0.5054149449523713
1.8081121694830198 12.856585183453854 97.07896188780802 105.02193574242249 0.5159024615616906
1.8288226079006058 12.828449316201386 88.32541768729929 110.19062071583576 0.5268055530352136
1.8489023194254701 12.798482791073864 80.45739155508585 115.64836456796795 0.5381476603116263
1.8682789322035716 12.766544491073079 73.38097243347406 121.41534307053355 0.5499579918663414
1.8869576831289034 12.732724408576233 67.00441052277549 127.51299406261208 0.5622664007961767
1.904881155373146 12.696908823898953 61.25158221378781 133.963744333929 0.5751021341603478
1.9220227506060257 12.659091886261775 56.07060020486075 140.79330497054332 0.5885015860731209
1.938336709705118 12.619205043881083 51.388393352863446 148.02934624200768 0.6025029941747998
1.9538329575953255 12.577360718981568 47.15791083927032 155.70036190591296 0.6171421031467835
1.9684492688491204 12.533431177466717 43.33720257524896 163.84000439483904 0.632466529987837
1.9821639502487405 12.487430794886205 39.87570762903991 172.48206392251532 0.6485178901318375
1.9949550934499434 12.439355236531469 36.742555633595146 181.66580404127816 0.6653492599669142
2.00678990713865 12.389196032839147 33.90140931277783 191.4332435238124 0.6830151077908329
2.017637337242573 12.33692280659546 31.32462500357959 201.83041816720217 0.7015746691955885
2.027473283636192 12.282537547970461 28.989137211197576 212.9072593564005 0.7210905569275539
2.036283928624426 12.226073169270517 26.86813208342309 224.7192931600135 0.741633226459021
2.044029194745461 12.167478340852869 24.941297591232303 237.32764613336522 0.7632796844003846
2.0506887082666694 12.106772704882983 23.185516923203554 250.79920629160432 0.7861125922444396
2.0562612118919494 12.044027609926223 21.592048949915498 265.2071218781121 0.8102202601853525
2.0607084167252814 11.97917873219454 20.140679282672572 280.6330208169568 0.8357020052685344
2.064014653547349 11.912282998409253 18.820027600908556 297.1667458400333 0.8626651538893316
2.0661760455569476 11.843383095304217 17.617769419392594 314.90866033535724 0.8912301342075278
2.067168709805929 11.772491534946278 16.52260373319737 333.9681351059291 0.9215226753516456
