M[M_sun], R[km], Lambda[1], P_c[MeV/fm^3], rho_c[fm^-3]
0.24162668629717493 15.618656898711224 2160425.4255784233 3.5677272577965504 0.1711233750220791
0.2536446615742252 15.277255308507991 1723210.774688098 3.7848323744749055 0.17388833220596753
0.26604066994624226 14.981266298988496 1353336.7924496154 4.011428328256196 0.1766669855132838
0.27881733185308005 14.723453526129132 1116471.0867710775 4.247770814544387 0.17945800831361747
0.2919722241373816 14.498387096471548 905885.2015925678 4.494485172855066 0.18226796966987785
0.30550800528412275 14.301200456120188 738641.6226324125 4.751727343369602 0.1850925824048503
0.3194255196284292 14.1281090296433 605062.9384998446 5.020179104529594 0.18793845412697652
0.3337227682488272 13.97594378856908 497660.616638659 5.300065171324114 0.1908022207160267
0.3484067805009224 13.841978880071611 410976.56280601275 5.5921134568281605 0.19369016448263235
0.36347041236085714 13.723937747250739 340644.3718017973 5.896492144415439 0.19659736504267603
0.37892519175047257 13.619954605677444 283285.18704841647 6.2140649744160505 0.19953149585931476
0.39475792177390456 13.52840079335242 236381.28645501527 6.545088216844435 0.20248871477419536
0.41098402395140265 13.447821566494703 197841.76662413558 6.890266610821131 0.20547277236378625
0.42759295742735565 13.377019806415648 166074.17165041753 7.25030430256264 0.20848672411763475
0.44458935719010934 13.314887999621346 139786.7065027429 7.625458726334962 0.21152609184274193
0.4619719539141533 13.260543164777186 117963.74546681407 8.01668200369505 0.21459708528423524
0.4797379744751462 13.213116996413898 99805.15429490045 8.424677836930675 0.21770132928897393
0.4978958279137424 13.171957997983458 84631.89839673247 8.84988512766687 0.22083626295103762
0.5164361730525906 13.136365215939781 71928.65922462505 9.293181157177242 0.2240053498209006
0.5353555816208585 13.105840012266931 61269.151554000986 9.755449064751177 0.22721148296994603
0.5546631915635042 13.079782402245112 52296.24149501132 10.237498602040542 0.2304560135967436
0.5743473085970751 13.057816442218611 44722.4788848658 10.739797863573045 0.23373559853064868
0.5944053588621534 13.039503840113225 38321.92731132015 11.263597795694885 0.23705650363546776
0.6148435337481841 13.024486815137193 32896.22930067685 11.809833288285267 0.2404203070283605
0.6356491700120502 13.012421146144321 28285.80312562237 12.379483562652451 0.24382864204747426
0.656821235269653 13.003004562871531 24366.465410680692 12.973233589783543 0.2472794129154779
0.6783544265281309 12.995982180560134 21023.963197065958 13.592418374437331 0.25077749608028443
0.7002435451606932 12.991047547451195 18168.97419333975 14.238232006465015 0.25432548500048613
0.7224793409136336 12.988001932416376 15726.025122200686 14.911864455694795 0.2579253648356848
0.7450687460247707 12.986639197155881 13631.468581017638 15.614338998643689 0.2615769668666004
0.7679905777418261 12.986753906730955 11833.792169957955 16.34693485307953 0.26528231518207074
0.7912381456213199 12.988137505164197 10286.849607567261 17.111262239422743 0.2690460384075274
0.8148119128543841 12.990680064197567 8954.361199944393 17.908776574501392 0.27287056985243735
0.8386960862211016 12.994145059568906 7805.953781855277 18.740832032707992 0.276756889359394
0.8628795809201065 12.998419637218023 6812.725223945049 19.608795718365197 0.28070567875998564
0.8873625651446342 13.003356726482851 5954.112950483781 20.514743131750294 0.28472320127794454
0.9121178652956429 13.008863051069492 5209.943996336257 21.460468886788092 0.2888124712268565
0.9371408421141029 13.014756139088847 4564.191073651043 22.447442799569018 0.29297329352027707
0.9624257485970136 13.020960557513959 4003.6692087812144 23.477719452620555 0.29720969992291685
0.987947941574851 13.027340755393604 3515.718372378515 24.55370788878345 0.301527678429515
1.0136917662153708 13.033800224807866 3091.321866620214 25.677333226958673 0.30592873106096147
1.0396564678144333 13.040260074424056 2720.7660014974526 26.850591847820798 0.31041437588657567
1.0658097385912315 13.046587611162456 2397.5889687463505 28.076564543726167 0.31499322334837154
1.092142483260115 13.052718788817916 2115.1497309942015 29.357285099017165 0.31966557095509174
1.1186426279341977 13.058547759425254 1867.905025300952 30.695552681532032 0.3244363990842238
1.1452747235664344 13.064002059842542 1651.6610593204855 32.09472345610464 0.3293134683064672
1.1720397426395996 13.069016874473508 1461.6738379535475 33.55678477169509 0.3342947749186542
1.198896967886358 13.073470321881354 1295.063644328819 35.0862580552514 0.3393937419568669
1.225844923736784 13.077343406648863 1148.7406980267108 36.68514002768535 0.34460696671796653
1.25284063292048 13.080501554897163 1019.889304459331 38.35850978508254 0.34994905059695885
1.279884168468797 13.082942991163296 906.4751352064488 40.10863657176765 0.3554167385123859
1.3069289303348912 13.084525683332398 806.5408119485751 41.94093789695176 0.3610242737910669
1.3339677085693447 13.085241582245835 718.4085273519551 43.85895328831215 0.36677389703653324
1.3609768675324159 13.085031677066684 640.4463793870148 45.8673186024205 0.3726730662546587
1.38790910295165 13.083768072462522 571.6483701577469 47.97139489742988 0.3787318893426706
1.4147598684180962 13.08146556760687 510.66701267502316 50.17597084297824 0.38495617630338586
1.441490593545449 13.078021741315439 456.74649003381836 52.48620801130895 0.3913525919397871
1.468085993193139 13.073419965670313 408.89849626204415 54.90855353812326 0.3979329833533966
1.4944960443674105 13.067551996920871 366.42585495941023 57.44919895144815 0.40470641435167903
1.5207080392748298 13.06040365534088 328.7354704887945 60.114774037061856 0.41168265905815504
1.546692114325501 13.051912108270972 295.20024652856705 62.91238629255412 0.41887226040181763
1.5724083798801896 13.042029028075522 265.38863784031867 65.84966415910125 0.42628659338241315
1.5978225626976381 13.030690284093483 238.8452293177843 68.93480441449103 0.43393793367058675
1.6229202346611353 13.017868550737793 215.16564244471598 72.17662415861884 0.4418395321703704
1.6476732405060497 13.003526147192606 194.04134782065458 75.58461787673822 0.4500056962473293
1.672020876064696 12.987592961473526 175.17490005469182 79.16866859488789 0.4584504104739727
1.6959587019927684 12.970033041701118 158.32019948434117 82.9390852430408 0.4671874305285968
1.719438409957217 12.950817183807844 143.2351476697927 86.90855370573536 0.4762380765955858
1.7424151856181065 12.929840571703002 129.74648741242197 91.08859840995379 0.48561646849034507
1.7649021158969123 12.90721777945912 117.64108888016943 95.49342672973654 0.49534498572059493
1.7868288632301015 12.882778914310146 106.79414889530672 100.13659608448444 0.5054407026762868
1.8081664854362003 12.856514431709853 97.05684941887247 105.03469486396368 0.5159295555830274
1.828875102973669 12.828374738322076 88.3017065733754 110.20427031510592 0.5268340907163882
1.8489537000301177 12.79840021255619 80.43504544167624 115.66303412882705 0.5381779625622849
1.8683282147650557 12.76645798840299 73.36224513309506 121.43105928550686 0.5499899843206768
1.8870068368270037 12.732631864390966 66.98656923665226 127.5297854201177 0.5623000073687895
1.9049286176884384 12.696809219990302 61.237200958732664 133.98176496348646 0.5751377124784501
1.9220672513103603 12.658985391438609 56.05541983694054 140.8126605542442 0.5885392981107267
1.938381538158005 12.619090716873716 51.37561074723588 148.05015270425451 0.6025430164401177
1.9538763540802966 12.577240414470559 47.15104058279597 155.72267803002876 0.6171843944358585
1.9684902285026835 12.53329972387265 43.325948132117986 163.86396543141436 0.6325112894032898
1.9822021172418505 12.487296228166544 39.86603901646564 172.5078905225781 0.6485655761250314
1.9949890669392718 12.439211020232692 36.7345599910734 181.69358983791108 0.6653998721807529
2.0068231474808136 12.389044602561533 33.89188777657881 191.46316897636848 0.6830689051357948
2.0176684266802494 12.336761999619505 31.318567475668267 201.86268234480312 0.7016319349282315
2.027501971117981 12.282371189107625 28.982970418311623 212.9420007196211 0.7211513348639985
2.036309852072529 12.22589454833182 26.86097908580035 224.75683331514333 0.7416981155108673
2.0440505440083316 12.167294083384935 24.933685470108415 237.36816798729257 0.7633487778837317
2.0507084893381546 12.106577935292997 23.180819501143638 250.84300264238965 0.7861862848211979
2.056278405213632 12.043822590190532 21.587381370299138 265.25460773877893 0.8102992794163725
2.0607213694089266 11.978965742038609 20.136142564981125 280.68437669824795 0.8357862408668285
2.0640232465108594 11.912063921056273 18.815796016238053 297.22246348505666 0.8627554264578192
2.0661798469652015 11.843153774052627 17.61346921676517 314.9691872216538 0.8913270258477664
2.06717046544895 11.77225103601144 16.518889139222704 334.0338704910795 0.9216264991415851
