M[M_sun], R[km], Lambda[1], P_c[MeV/fm^3], rho_c[fm^-3]
0.24162668629717493 15.618656898711224 2160425.4255784233 3.5677272577965504 0.1711233750220791
0.2536447473650073 15.277259394808981 1723186.6769051726 3.7848332822186093 0.17388834352055488
0.2660406132199076 14.981267941619304 1382993.5362372638 4.011430236526206 0.17666700857360068
0.2788164165541255 14.72350857433564 1116373.213045989 4.247773787912354 0.1794580428002051
0.29197226657319075 14.498361292822187 905818.981997348 4.494489289356749 0.18226801550807947
0.30550878186438457 14.301194150180901 738655.536340053 4.751732742793495 0.18509264072893328
0.3194258844543643 14.128082978945837 605061.7322147476 5.020185826662044 0.1879385238716952
0.3337260960577707 13.975876478441524 497671.208403202 5.300073393156958 0.19080230349624094
0.34840726856812243 13.841974761027487 410973.99975970434 5.592123198902421 0.19369025873988077
0.363470278561319 13.723937874356821 340641.33514517674 5.896503625619701 0.19659747287657614
0.3789254212096919 13.619947905257646 283276.86903391255 6.214078333707714 0.19953161767996908
0.3947580346721684 13.528421675299843 236394.77647617247 6.545103440366267 0.20248884826391586
0.4109848612244341 13.447820853918602 197838.75946846238 6.890283992487281 0.2054729203933491
0.42759329904754556 13.37702225837536 166063.40005367235 7.250324005502514 0.20848688711500687
0.4445897359100854 13.314898366286267 139781.16423524552 7.625480696103762 0.2115262667362281
0.46197305051166915 13.260525560594337 117970.6741552484 8.016706623530645 0.21459727573856785
0.47973897065915466 13.213134147162036 99808.87737100788 8.42470529884097 0.2177015357641483
0.4978968859887801 13.171957109351673 84631.17490674755 8.849915330405478 0.2208364816317698
0.5164375039829745 13.136365953874728 71927.4384158151 9.293214589561329 0.2240055851869688
0.5353569584580125 13.105814917141497 61264.57689241814 9.755485953492233 0.22721173552979362
0.5546644294031475 13.079783053371683 52294.087966535626 10.237539187627364 0.23045628388091932
0.574349046971403 13.057814315807834 44721.66887597138 10.739841969666408 0.23373588170543041
0.5944081079725648 13.039494720681867 38321.132449612465 11.263646085647707 0.23705680535196688
0.6148458024934008 13.024483081525034 32896.03098779702 11.809886047411558 0.24042062789187502
0.6356515606172665 13.012418117501053 28286.884973519092 12.37954109406799 0.2438289826952547
0.656823485469904 13.003018953439101 24366.527219867436 12.973295629292329 0.2472797675078696
0.6783565610467326 12.995969427476746 21023.83547715078 13.5924858031007 0.25077787150501685
0.7002460403784849 12.991059068319407 18168.61502955759 14.238305185876344 0.2543258820023641
0.7224823424779174 12.988000968584485 15726.113359988049 14.911943770682633 0.2579257842039235
0.7450714246604383 12.986639210071937 13631.11584840204 15.61442408481946 0.2615774017706911
0.767993091335638 12.986755470400652 11833.438124960236 16.347026862808214 0.2652827738274914
0.7912400000325718 12.988147319947958 10286.652331502326 17.111361634549905 0.26904652173237276
0.8148151143870008 12.990677965479476 8954.356980348894 17.908883847495144 0.2728710788551223
0.8387007461443682 12.994141419265565 7805.8638352764165 18.740946707744314 0.27675741623185146
0.8628819153790965 12.998406882313924 6812.378447738948 19.608919286663706 0.28070623313301063
0.8873658926348025 13.003368334695306 5954.043098824101 20.514876188131122 0.28472378435163603
0.9121227984794184 13.008853927716196 5209.78123320072 21.46061206680704 0.2888130842822345
0.9371440590817907 13.014744391949963 4564.181007941514 22.447595506748673 0.2929739277789631
0.9624297478118038 13.020963791270292 4003.518911680034 23.477883603552822 0.29721036658862676
0.9879515529199182 13.027345735636706 3515.623495434364 24.55388425622884 0.30152837905365
1.013695436150794 13.033802224779869 3091.2747696383494 25.67752112816748 0.30592945620791395
1.0396612707254225 13.040265128794713 2720.701744935637 26.85079358020552 0.31041513799519926
1.0658153166753566 13.046580389907644 2397.5964709438063 28.07678105173401 0.31499402430563744
1.0921480077110712 13.05271801485135 2115.1160128371375 29.357515615235812 0.3196664006719412
1.1186462636821848 13.0585517854891 1867.8060499394828 30.69579995844311 0.32443727136955075
1.1452799785213095 13.064002952727595 1651.5959223126804 32.094986686569634 0.32931437274041775
1.1720447549671076 13.069012967223433 1461.6349070890008 33.55706704378082 0.3342957262046866
1.198901943646864 13.073474317415874 1295.0502516722404 35.08656070142715 0.33939474272572256
1.2258491597279262 13.077345315264662 1148.694241206209 36.68546216960258 0.344608005897925
1.2528468483441657 13.080501747782574 1019.8269293328842 38.35885273025025 0.349950130498415
1.2798900977151542 13.082944277863874 906.4128302886409 40.10900421865875 0.3554178758890441
1.3069350363105716 13.084525115127255 806.5436140901861 41.94132936606679 0.3610254572615089
1.3339731673382107 13.08523629282368 718.3953595398559 43.85937296929552 0.3667751445454588
1.3609832072523946 13.085028890552108 640.4198831105099 45.867765615794895 0.37267436610882926
1.3879153169936278 13.083768338094371 571.6294955744487 47.971871152790605 0.3787332449191658
1.4147652097556676 13.08146483017246 510.66304870521327 50.17648156339834 0.38495760739828555
1.4414961897436125 13.078022618491794 456.727489544548 52.48675238592907 0.39135408658853443
1.4680921750588358 13.073420275243524 408.88209609854334 54.909133977728644 0.3979345457924245
1.494503064365899 13.067549355474096 366.4216152043663 57.44981806211869 0.40470804914494923
1.5207148975333622 13.060399319486825 328.74122095977054 60.11543463765819 0.41168437112405587
1.5466985407380354 13.051909272138726 295.19642632051193 62.91309143395042 0.41887405504273245
1.572414836408577 13.04202648542619 265.37756572391766 65.85041714535626 0.42628847631723804
1.5978288191156185 13.030688004512468 238.83597901072005 68.93560882617743 0.4339399110705227
1.6229261274825146 13.017866733168791 215.16254396410102 72.17748387855322 0.44184161069834127
1.6476782435971402 13.00352366523706 194.02694892261513 75.58553711839087 0.45000788310143647
1.6720278999363263 12.987585850325198 175.16956493625713 79.16964713294959 0.45845269339207545
1.6959645603846067 12.970028201793133 158.31257559075385 82.94013262628008 0.4671898374122302
1.7194447772675938 12.95081169931568 143.23124128805068 86.90967532670629 0.47624061651523697
1.7424212440255022 12.929834437347813 129.73294240425238 91.08979473548872 0.48561912987430866
1.7649075524545952 12.90721352399373 117.63492998387086 95.49470928648992 0.49534779993649286
1.7868354846458234 12.882770613600155 106.79051912523701 100.1379659892775 0.5054436588713986
1.808172017130461 12.856507259127813 97.05258304206122 105.0361592216007 0.5159326651495391
1.8288810441947758 12.828365241344986 88.29908297282401 110.20583687527596 0.5268373659769866
1.8489598619426284 12.798391785713441 80.43118546060192 115.66471775330844 0.5381814403494893
1.8683351895945939 12.766446647520814 73.36262856693524 121.43286303793214 0.5499936560996131
1.8870130292760279 12.732620636312793 66.98514893124867 127.53171257020294 0.5623038644071053
1.9049340090278268 12.696797066049944 61.23532177660804 133.9838332018801 0.5751417958232214
1.922073165611626 12.65897278830391 56.054480967380194 140.81488201090713 0.5885436263530833
1.9383855945523119 12.619078109987619 51.37198154086395 148.05254068478322 0.6025476098394741
1.9538797776486754 12.577226899670194 47.14809823555573 155.72523928136317 0.6171892482635221
1.9684949159651703 12.53328654824003 43.32641987056166 163.86671547741432 0.6325164265120723
1.9822076349774338 12.487279725963072 39.86584465389391 172.51085468951084 0.6485710491351774
1.9949935253193727 12.439192726926906 36.73289694595266 181.69677887281034 0.6654056810520405
2.006827955032819 12.389026315174192 33.892698194134354 191.46660359232055 0.6830750795860838
2.0176715924811988 12.33674349636033 31.316264584409534 201.86638539100974 0.7016385074699729
2.0275064300773815 12.282352348067741 28.981654241961518 212.94598808846123 0.7211583105272277
2.0363120092939067 12.22587439883671 26.85982832394893 224.76114192109088 0.741705563038821
2.044053473409284 12.167272957085556 24.93452082023943 237.37281882444776 0.7633567079883145
2.050710241201373 12.10655555075091 23.179970346754608 250.84802931861557 0.786194742802673
2.0562807035693353 12.043799658287451 21.587061832363418 265.26005789049805 0.8103083487854803
2.060722755046439 11.978941304972388 20.13611535796112 280.6902710444504 0.8357959089664977
2.0640248791958715 11.912038581145527 18.81566061485925 297.2288584698279 0.8627657874790091
2.0661807699174752 11.843127133523714 17.61340110600063 314.9761342081579 0.8913381466067922
2.067169706170296 11.772224988165569 16.518334300212228 334.0414153074485 0.9216384155763643
