M[M_sun], R[km], Lambda[1], P_c[MeV/fm^3], rho_c[fm^-3]
0.24162668629717493 15.618656898711224 2160425.4255784233 3.5677272577965504 0.1711233750220791
0.25364537787146935 15.277265428949544 1723024.7981840698 3.7848439757899897 0.1738884768107634
0.2660422097508025 14.98121207440148 1382960.900592579 4.011452716732672 0.17666728023362893
0.2788195249838772 14.723420593989436 1116313.7915466954 4.247808815484945 0.17945844906726174
0.2919748687835233 14.498351387706796 905805.5820645543 4.4945377836427385 0.1822685555032089
0.3055121593492348 14.301144609173873 738587.4571672903 4.751796350626109 0.1850933278149229
0.3194303369697796 14.128038689567749 605032.7539161919 5.020265016798582 0.18793934549992636
0.3337321488530145 13.975837579867292 497618.7697239641 5.3001702507221085 0.19080327869120625
0.3484129189176092 13.84187976758167 410924.897783658 5.592237965936871 0.1936913691425104
0.36347829534788834 13.723868916266401 340627.18039684533 5.896638880837004 0.1965987432222001
0.3789328509597999 13.619935252162003 279343.30532097846 6.214235714188415 0.19953305280045464
0.39476795442780055 13.528342593537523 236361.78441843926 6.545282782919468 0.20249042085582752
0.4109943842183014 13.447777189189644 197819.9880825621 6.890488759716705 0.20547466427700212
0.4276043713493589 13.376973691238662 166043.9538646195 7.2505561192763235 0.20848880733277195
0.4446018899107311 13.314860564488859 139767.20097337276 7.625739515077412 0.2115283271016784
0.46198233895566654 13.260500257216728 117935.42681910637 8.016996662657949 0.2145995194257041
0.4797528986687629 13.213084729192705 99789.58015557137 8.42502882022999 0.21770396819271912
0.49791281010843885 13.171913006273899 84619.98334900574 8.850271141342214 0.22083905785497807
0.5164528387323216 13.136348127856495 71920.9114577892 9.293608448874433 0.22400835798108734
0.53537447243773 13.105791594373422 61259.82894615259 9.755920532161253 0.22721471088539763
0.5546839126539168 13.07975339776874 52287.594990602454 10.238014212009508 0.2304594280998677
0.574368650636355 13.057814765695031 44715.307497311886 10.74036157625207 0.23373921774066436
0.5944291716252642 13.039483983141592 38316.25759848942 11.26421498262493 0.2370603598305755
0.6148690557580079 13.02446818216279 32890.897076084926 11.810507596208042 0.24042440794558892
0.6356759868798082 13.012405791512279 28282.081335082952 12.380218865850217 0.24383299583226992
0.6568490252628523 13.003008153282504 24361.643375598138 12.9740265115818 0.24728394493132383
0.6783837097741762 12.99596206532328 21019.246435450616 13.593280176008843 0.25078229436054417
0.7002751449594949 12.991043817872514 18165.448890240605 14.239167309550805 0.254330559065374
0.7225113106577726 12.988004782711716 15722.602183505556 14.912878179029137 0.2579307247730793
0.7451032464084255 12.986640425979267 13628.294183858345 15.615426484923537 0.26158252537510485
0.7680268697204343 12.986758892220692 11831.182306613964 16.34811083124386 0.2652881771382744
0.7912755443428 12.98813796432738 10285.665939949875 17.112532612640813 0.2690522158023024
0.8148518287280786 12.990681094232924 8952.24813942454 17.910147637364272 0.272877075447686
0.8387387359263733 12.994139383957458 7804.238655667947 18.742297703556787 0.27676362335858573
0.8629211091454076 12.998426915125705 6810.853356196988 19.610375057382935 0.28071276425812125
0.887408386227074 13.003367131773647 5952.815714584294 20.516443741806775 0.2847306536148958
0.912166642792391 13.008861408015957 5208.69905596636 21.462298891444814 0.288820306776851
0.9371890244941503 13.014762859457282 4562.997032142049 22.44939457496053 0.292981400084081
0.962476380381046 13.020970200353823 4002.5804734582043 23.479817496107646 0.29721822070090737
0.9879991685165078 13.027354144293739 3514.801352082408 24.555962077713495 0.30153663325202035
1.0137453756327797 13.033815777118333 3090.4972045797344 25.679734834697737 0.30593799932775007
1.0397127795516172 13.040274566799187 2720.030925048335 26.853170239492517 0.3104241165860216
1.0658679022512496 13.04659826939599 2397.019755021198 28.07933179123596 0.3150034606002017
1.0922028252537537 13.052729288713568 2114.676049650711 29.36023139351979 0.3196761758062671
1.1187040378655113 13.058562932947932 1867.42259198531 30.698713205032618 0.32444754803566894
1.14533738499504 13.064015888034987 1651.0361245491013 32.09808789192525 0.32932502817656323
1.1721049396982277 13.069028179843341 1461.2792125509054 33.56039259146549 0.33430693364326225
1.1989623639739984 13.073483686551425 1294.6691381366056 35.09012629075801 0.33940653316300623
1.225912907996841 13.077349929236856 1148.3941786024977 36.68925745195902 0.3446202488913098
1.252910863865554 13.08050553552728 1019.5876823493771 38.362893110802034 0.34996285326943527
1.2799552741624698 13.082942670562467 906.1846719930528 40.11333562969088 0.3554312758277466
1.3070088432706186 13.084552052988354 806.292519233685 41.94594144529732 0.36103940027574977
1.334041367820526 13.085237818715315 718.1157790542982 43.864317436359954 0.3667898420586644
1.3610516385091551 13.08503258745198 640.2297981095306 45.873032108604356 0.3726896803545202
1.3879922234485262 13.083780731187618 571.4427992059321 47.97748217064472 0.3787492156872546
1.4148372564230636 13.081454716574523 510.5218661582789 50.1824986461133 0.38497446792714907
1.441569485441287 13.078010315510962 456.5974182219465 52.49316597978164 0.3913716959142876
1.4681646995618078 13.07340604902544 408.75743089567277 54.91597248741044 0.39795295383060875
1.494576159985879 13.067532535746844 366.2962238073692 57.45711219343435 0.40472730967033554
1.5207886201591931 13.060377818588966 328.638652973152 60.123217603580294 0.4117045420876252
1.5467730306269794 13.051885545255487 295.10032441945157 62.92139918123736 0.41889519892007293
1.5724908781379379 13.041994823272457 265.2956284374845 65.85928860402393 0.4263106604917326
1.5979037529700075 13.030651150689105 238.75896102060122 68.94508618439333 0.4339632082550939
1.6230127112875599 13.017838572652643 215.0861405987867 72.18761288583926 0.44186609939997373
1.6477542044193032 13.003475438215995 193.9594295773045 75.59636742037401 0.4500336481331944
1.6721035936041997 12.987531946487582 175.12689793928732 79.18117607443091 0.4584795902806517
1.6960399361291318 12.969970600743213 158.25659036533793 82.95247271738091 0.4672181949056397
1.7195198182800364 12.950746617974561 143.18474006987375 86.92289010637455 0.4762705414893903
1.7425009300857852 12.929799166149492 129.6914955058125 91.10388970369938 0.4856504859904061
1.764982644452713 12.907134489916674 117.5946300844777 95.50982025966256 0.49538095678574995
1.786893781687271 12.882655624231848 106.75228266248487 100.15410612603611 0.5054784885863037
1.8082439826095755 12.856414341633982 97.02067207135671 105.05341223646819 0.5159693019627739
1.8289484137757688 12.828260730493358 88.27076860161213 110.22429408168567 0.5268759550858291
1.8490316330628904 12.7982795914029 80.41453975927632 115.68455426751729 0.53822241574279
1.8684006976579168 12.766329761359781 73.3348679403232 121.45411495781671 0.5500369172205383
1.8870765733054384 12.732496850053167 66.95978601095884 127.55441842124002 0.5623493083702487
1.9049977783499863 12.696662679652835 61.2146973088874 134.0082014346464 0.5751899062809712
1.9221355722967155 12.658829043704415 56.03676836982256 140.84105555390846 0.5885946223681453
1.9384450066471886 12.61892233867431 51.35631023552802 148.08067631985048 0.602601730133361
1.9539377199898924 12.57706155185947 47.132480717737096 155.75541650706242 0.617246437127005
1.9685459716902023 12.533115455427131 43.30560591195711 163.89911721431378 0.6325769532258776
1.9822595012767492 12.48709590818861 39.852953579360516 172.54577936599816 0.6486355337317261
1.9950414480155974 12.438994910640059 36.72082357568911 181.7343531227072 0.665474123069224
2.0068737742262215 12.388819219274264 33.880719808038926 191.50707148543844 0.6831478292028812
2.0177137922543715 12.336526784243167 31.306579066405984 201.91001616912553 0.7017159477973071
2.0275444839895855 12.282127395198938 28.972855987880774 212.9929690157462 0.7212405008487331
2.036346952515177 12.225636507379537 26.852552104253533 224.81190798299437 0.7417933133853897
2.0440841147671294 12.167022304950201 24.926792235946152 237.42761740338733 0.7634501445992896
2.050735817790218 12.106293822828276 23.17312750094658 250.90725643694998 0.7862943994837839
2.0563009813360194 12.043524781729442 21.580534307628632 265.32417430798154 0.8104148818977018
2.060739786508024 11.978654940133874 20.13027688644256 280.75972205617603 0.8359098247903091
2.064036174121097 11.911736307805308 18.80989781489257 297.3042086287469 0.8628878682377834
2.0661856523572726 11.842810516254493 17.609341922970366 315.05798877270547 0.8914691796650792
2.067172768852555 11.771904156496245 16.51400353684615 334.13031430927975 0.9217788244485546
