M[M_sun], R[km], Lambda[1], P_c[MeV/fm^3], rho_c[fm^-3]
0.24162668629717493 15.618656898711224 2160425.4255784233 3.5677272577965504 0.1711233750220791
0.25363537983681256 15.277511163424437 1723412.7973259909 3.784663648467005 0.17388622911767515
0.2660230341898352 14.98161913752059 1383366.7509268913 4.01107364164004 0.1766626993348493
0.2787869379297663 14.72404955568836 1116892.3053945678 4.247218177113763 0.17945159855222909
0.291931820995062 14.499028352577328 906476.3914163475 4.493720092700955 0.18225945032479599
0.3054558884820641 14.301879123084342 739149.4391800379 4.750723853753628 0.18508174280180906
0.3193607435893106 14.128847542010346 605539.3822081396 5.01892982373901 0.1879254923565961
0.33364671532439943 13.976672227186175 498162.9378804791 5.298537222565913 0.19078683680735709
0.3483162381303771 13.842737509374846 411437.29465472547 5.590303035727699 0.1936726481604557
0.3633663311437372 13.724679240365997 341043.1998808418 5.894358593283365 0.19657732627893604
0.378805888740756 13.620690848575652 283670.5172765541 6.211582489706487 0.1995088585878697
0.39462347945462856 13.52911751204059 236742.74229609763 6.542259386492997 0.20246390975357587
0.410833879925472 13.448517542564966 198161.82028640472 6.887036845579631 0.20544526632767124
0.427426296054203 13.377678165160187 166352.6726785002 7.246643313422592 0.20845643769271024
0.4444048664514585 13.315522782398089 140047.09999217323 7.621376641536533 0.21149359582297453
0.46177132553815003 13.26110078390475 118191.29210662168 8.01210765000952 0.21456169896027155
0.4795185974614845 13.213662784611088 100000.12455177699 8.419575566799505 0.21766296735043036
0.49765768162323737 13.172456098879545 84812.47620024672 8.844273761863372 0.22079563426506815
0.5161767934024913 13.136820480881166 72095.77274819685 9.286969923415839 0.22396162234799502
0.5350772281806856 13.106228038217107 61411.12702573678 9.748595876413011 0.22716456241497898
0.5543666829922999 13.080147822381166 52415.84747134215 10.229958816354175 0.23040580156535231
0.5740268292278083 13.058138405285398 44833.60904849263 10.731604244830523 0.23368299296025624
0.5940693594414598 13.039786676533032 38421.00592263603 11.254627177265709 0.23700045504918726
0.6144812991296921 13.024727090447954 32981.46214059217 11.8000327110557 0.2403607031669027
0.6352620044081878 13.012612661331898 28365.914318594696 12.36879676501449 0.2437653647256678
0.6564088583028878 13.00315437332432 24436.380472205186 12.961709644884735 0.2472135467720523
0.6779241705310152 12.996084309469914 21086.66008519123 13.579893715976477 0.2507077621375312
0.6997905397180822 12.991124720813456 18223.678538683318 14.22463952463613 0.25425174512318316
0.7220002014646283 12.988044936459541 15774.631914910731 14.897132730651453 0.25784747265221486
0.7445648550444179 12.986673537780304 13674.141956022262 15.598535697131735 0.26149619087201553
0.7674620664612168 12.98673929293108 11872.356095338775 16.32984607291991 0.2651971318989891
0.7906840352833815 12.98809290900295 10320.849081083508 17.092802274876323 0.2689562738510066
0.8142330125515296 12.990604155267201 8985.138587324105 17.88885404011109 0.2727760388512848
0.8380922353966355 12.994044833311536 7833.054775530159 18.71952885403716 0.2766589848740167
0.862249304203665 12.998291274147903 6836.973707780157 19.585847966845805 0.2806027266713077
0.8866995102924525 13.003221563284056 5975.4142635447015 20.490034023479033 0.28461492213429207
0.9114349366205774 13.008707686721118 5228.947902410996 21.433880498838697 0.28869862744930835
0.9364308010649971 13.014579845634453 4581.648585351739 22.4190858508879 0.2928555148994539
0.9616847880424235 13.02076185689248 4018.685003243422 23.447238292017964 0.29708590687287445
0.9871848363414533 13.027157322358748 3529.208698878742 24.5209591496737 0.3013975832355884
1.0129027349883777 13.033612228610583 3103.3156474907 25.642443623812447 0.30579408536306196
1.0388404225348447 13.040058875542778 2731.591903758866 26.813135112588938 0.310272871085687
1.0649715943688602 13.046392063138192 2407.44310956756 28.03636547511958 0.314844509513701
1.091275850163357 13.052515723261527 2123.7880108705513 29.314486103951175 0.31951152085157103
1.1177512754851413 13.058361536767235 1875.8946249165815 30.649643118639176 0.3242744501262538
1.1443637060026413 13.063834681110217 1658.468528782175 32.045617900007976 0.32914403282897653
1.171098531196846 13.068850017614055 1467.9259070981434 33.504380749755654 0.33411816796163757
1.1979317828613985 13.073318967454265 1300.7919798941546 35.03007323878442 0.33920795400054876
1.224857044496071 13.077211175660429 1153.724986202716 36.6253373711519 0.3444140526052419
1.2518367173875176 13.080411877806792 1024.4223925170054 38.2944390263569 0.349746189132368
1.2788524820575333 13.08286743203818 910.5153743720048 40.040390123191585 0.35520560680015695
1.305877069878914 13.084481368919315 810.1501144226129 41.86827116386241 0.360804591247976
1.332894444171355 13.085222492043382 721.677843179448 43.781052176081786 0.36654233464349606
1.3598862588384288 13.085057041937597 643.4598201332772 45.78434623567477 0.3724317938831062
1.3868002266505521 13.083842175923115 574.3269364524701 47.8829971453509 0.3784802808048386
1.413633371814046 13.081578764715582 513.0998173777648 50.08117917404488 0.38469055960077675
1.440359821374935 13.078210098766581 458.90940974905476 52.385172800693184 0.3910751871060583
1.4669282125448952 13.073633247479872 410.86862233180454 54.80082776773388 0.3976430049535657
1.4933306715748853 13.067838701176935 368.20207499963885 57.33429941157349 0.4044030162623296
1.5195328369963508 13.06076123858805 330.3201702149233 59.992178087773425 0.41136492948673015
1.5455076673362782 13.052330276332043 296.65206122829517 62.78152830213369 0.4185392164125261
1.5712176986521587 13.042520744546174 266.69401651004944 65.70993158354219 0.42593717487584076
1.596637165439072 13.031266037660957 240.0138536580607 68.7855334777528 0.43357099675788596
1.6217320559665935 13.018529175284746 216.23979337042098 72.01709508836193 0.4414538418758621
1.6464632420122731 13.004258975299363 195.021477295787 75.41404964465451 0.4495999184653819
1.6708283727309774 12.988418821624688 176.06481992849052 78.9865646365084 0.45802457103307304
1.6947593601525404 12.970958313643212 159.11722885451704 82.74475218062841 0.46674085371716284
1.7182504235659675 12.951844933876743 143.96872957987125 86.70045387933128 0.4757668328758432
1.7412521664434264 12.931026221418112 130.39621608024012 90.86664516412733 0.48512270421643416
1.7637375739680352 12.908469869249208 118.24848951212702 95.25548399908081 0.49482288623950627
1.7856727254706164 12.884128500333404 107.3447545031085 99.88245674969055 0.5048922810173245
1.807013037938776 12.857955658406826 97.55841593599757 104.76293647857284 0.5153523008238565
1.827764106164266 12.829993637335102 88.75845211911438 109.9126935226676 0.5262228893275644
1.847844637516525 12.800093415258086 80.8552226224239 115.35072941613792 0.5375328487939404
1.867263566457787 12.768341962480324 73.74206686787049 121.09648394335115 0.5493089115322323
1.8859593774163819 12.734622200705767 67.33386929025245 127.17112497335282 0.5615802759378659
1.9038988693803516 12.698905168145838 61.55689891894128 133.5977239538477 0.5743788192436265
1.921068319504503 12.661220751092065 56.34735557124099 140.40065336595026 0.5877365514295149
1.9374389766209095 12.621548050488961 51.64243388853728 147.60727973977214 0.6016911282586319
1.9529762923838734 12.579856089907278 47.389022527254504 155.24768912173676 0.6162842429075851
1.967625951491764 12.536053095264736 43.54757719565456 163.35274574769207 0.6315544446991215
1.981390480103887 12.490221361025233 40.071761471824985 171.9582285773354 0.6475506854419345
1.9942319338993841 12.442317689961927 36.919558810406805 181.1022554933039 0.664322748472736
2.006099252208223 12.392269006109988 34.06806121593088 190.82632638761692 0.6819240455762179
2.0169983149886597 12.340159376234036 31.478449494913207 201.1761003950211 0.7004133196930932
2.0268914352137686 12.285946277941454 29.127942727488414 212.2018571990477 0.7198551545474484
2.0356102458525784 12.229909833824358 27.012871908378983 224.00600509999143 0.8086767967989978
2.042536054913124 12.172316229046572 25.164458789111073 236.80851792003224 0.9347670826626133
2.047464404436024 12.112450749284617 23.55083610871138 250.71805221812886 1.067893836246791
2.0503456512612668 12.049872753254817 22.134546199336214 265.8444391196435 1.2088922150388441
2.051222661856682 11.984445927798584 20.88911936309022 282.3104468928772 1.3586979200752218
