M[M_sun], R[km], Lambda[1], P_c[MeV/fm^3], rho_c[fm^-3]
0.24162668629717493 15.618656898711224 2160425.4255784233 3.5677272577965504 0.1711233750220791
0.2536445112906185 15.277281361915794 1723224.2076176612 3.7848293974640725 0.17388829509896364
0.2660403482060487 14.981257953188498 1383011.4047766137 4.011422069951873 0.17666690988536946
0.2788169257862584 14.723494685035696 1116377.6989530835 4.247761063184041 0.17945789521253244
0.29197136547778874 14.49838635009261 905831.6242077148 4.494471672520032 0.18226781934051398
0.305507408316209 14.301205412891107 738649.845591565 4.751709635620032 0.1850923911273592
0.31942466435808153 14.12810863878874 605065.3066920596 5.020157058888736 0.1879382253949438
0.33372268106940634 13.97591780085652 489677.94707031094 5.300038207343259 0.19080194923348082
0.34840517990609365 13.841992387291041 410984.970674307 5.59208150714696 0.19368985536067768
0.3634691036096465 13.72397342556148 340652.12979288877 5.896454491184382 0.19659701139556168
0.37892250317268883 13.619965508284158 283292.36033538316 6.214021161924404 0.1995310963421446
0.39475561377389273 13.52842320531035 236392.1956230644 6.545038290543053 0.20248827698797936
0.410981244409045 13.447835806259503 197853.04626303367 6.890209606814163 0.20547228689374208
0.427590399160919 13.37704194940244 166068.28660601273 7.2502396858686895 0.20848618956028553
0.4445860271392341 13.314903378718293 139786.2597291001 7.6253866755130595 0.21152551827187105
0.4619683214907622 13.26054703707365 117973.48813776937 8.016601261913507 0.21459646068127808
0.4797341528363776 13.21312475034266 99800.00300908345 8.42458777450266 0.21770065214542023
0.4978918735938973 13.171958689249367 84633.15110101366 8.849786076637887 0.22083554577926653
0.5164307917458184 13.136382698389724 71927.4552952688 9.293071514470972 0.224004577929413
0.5353499471455583 13.105829003318146 61269.14073824859 9.75532808687251 0.22721065469135135
0.5546583739356735 13.079787441327756 52301.9497249335 10.23736550031244 0.23045512719115757
0.5743417184801878 13.057823244734529 44725.18275358768 10.739653216307874 0.23373466985040017
0.594399260133877 13.039508610971753 37987.28650256023 11.263439427432749 0.23705551414770007
0.614838443854375 13.024482702343422 32897.74615681028 11.809660263347983 0.2404192547480561
0.6356423537836602 13.012424055854574 28287.65158624138 12.379294886982374 0.24382752488483145
0.656814125914092 13.003029091464834 24368.354293464832 12.973030129816738 0.2472782500217403
0.6783465887196125 12.995972534868157 21025.21628176803 13.592197240750561 0.25077626486716176
0.7002354267156693 12.991049437750293 18169.74616473465 14.237992013227677 0.2543241830254607
0.7224711435190829 12.987995738954305 15727.40971502554 14.91160434087828 0.25792398951059886
0.7450601844741098 12.986637667985434 13632.101573611746 15.614059957260933 0.26157554059214727
0.7679812541307869 12.986757568370432 11834.324211253856 16.34663310598493 0.26528081104848494
0.7912270648045294 12.988151562900631 10287.585680743377 17.110936272016986 0.269044453338415
0.814801592528047 12.990675975223013 8954.647569779438 17.908424771760966 0.2728689005735891
0.8386867481921321 12.994138633358812 7806.584585520462 18.7404559550908 0.27675516147733076
0.8628672880431251 12.998404005503174 6813.055139147955 19.608390475478835 0.28070386069072784
0.887349037176714 13.003359712614984 5954.332067235245 20.51430677291737 0.2847212890858801
0.9121068991356093 13.008869261098365 5210.421093547517 21.45999932774282 0.2888104607110028
0.9371286313968132 13.014745205164205 4564.619293016091 22.446941996441076 0.29297121346919763
0.9624127643918081 13.020952160750891 4003.9842785036717 23.47718112004873 0.29720751359438846
0.9879343966296084 13.027338025353654 3515.9899426371007 24.553129492553236 0.30152538073587
1.0136778916390006 13.033797145740381 3091.505734760552 25.67671700611976 0.3059263529460667
1.0396425189469674 13.040250521233215 2720.9378524233875 26.849930268151375 0.3104118765577149
1.0657950119997441 13.046585196073629 2397.7768187927736 28.075854507984154 0.3149905966174146
1.0921278883186971 13.052714285123649 2115.2837747251083 29.356529123891242 0.3196628499088095
1.1186260836125206 13.058546606099377 1868.2566342533592 30.69474174045403 0.3244335384370235
1.145258320920395 13.06400360830509 1651.7811215951338 32.0938601960382 0.3293105022299066
1.1720230255258863 13.06901257187529 1461.8120135517984 33.55585906556355 0.33429165519354664
1.1988797156616584 13.073468076977933 1295.1506661713283 35.085265533341115 0.3393904599559829
1.2258264684107831 13.077340394672309 1148.8441250943306 36.68408357047913 0.3446035587505553
1.2528230038620978 13.080501615051945 1019.9629267273743 38.357385104716855 0.34994550908630656
1.2798668393625123 13.082940424098117 906.56502644608 40.10743088355069 0.35541300851583707
1.3069117003075743 13.084517285732781 806.6487776398013 41.93965408513096 0.36102039263343594
1.3339486224081316 13.085238076196696 718.4470026281891 43.85757695747193 0.36676980586949015
1.3609572597825645 13.085032714277178 640.486795305591 45.865852636729116 0.3726688034255645
1.387888461556453 13.083770419002873 571.6889933941757 47.96983303456215 0.37872744377676876
1.4147393581692638 13.081461134102735 510.7450826994174 50.174295954421225 0.3849514830810726
1.4414704729399923 13.078028591291927 456.76605434362034 52.48442275619572 0.39134769029812344
1.468065014311997 13.073425363848363 408.9246400971112 54.90665001054862 0.39792785939950764
1.4944749703232196 13.067556694716718 366.4511002736305 57.447168605069464 0.40470105311861676
1.5206875429447044 13.06041060673423 328.76416519714866 60.11260762775329 0.4116770444166833
1.5466712521001271 13.051921578392406 295.2255257779015 62.91007381534016 0.418866374963458
1.5723873576064855 13.042037998714608 265.41013771862896 65.84719477872868 0.42628041839280534
1.5978119598307097 13.030706378357785 238.86679435282227 68.93216638892726 0.4339314488921218
1.6228990604559461 13.017879909869642 215.18470850238253 72.17380475467228 0.44183271575291916
1.6476509398689139 13.003540153942815 194.05648985621008 75.58160327689988 0.4499985245857548
1.6720002493465513 12.987601798331987 175.19736322897296 79.1654595379848 0.4584429237809318
1.6959369515633846 12.97004962371955 158.33098512596473 82.93565041524376 0.46717953730432304
1.7194174686296335 12.950835794845332 143.24816906195542 86.90487542294805 0.47622974709482213
1.7423964641743475 12.92988448445943 129.76216531806796 91.08467514121271 0.4856077406614995
1.7648808090674064 12.907243010301386 117.65149103833441 95.48922067515679 0.4953357566976806
1.7868086502715879 12.882801087404891 106.80461320691558 100.1321035815604 0.5054310080498785
1.8081466608534913 12.856540143883926 97.06427564191762 105.02989261358043 0.5159193579942727
1.8288553547816724 12.828402481502234 88.31142491090796 110.19913290338032 0.5268233497550613
1.8489348914743968 12.79843167216912 80.44368180174538 115.65751281909994 0.5381665574416462
1.8683102880356661 12.766489925392579 73.37107089806965 121.42514403103708 0.5499779430302753
1.8869892151252572 12.732665653066444 66.99466613404836 127.52346549828482 0.5622873585456128
1.9049113233831672 12.696846165060938 61.24280407576498 133.97498236100026 0.575124321515163
1.9220510721975244 12.659026100414788 56.06179473635283 140.80537549308877 0.5885251040412272
1.9383639338353174 12.619133864613177 51.37830364397698 148.04232155119556 0.6025279528275846
1.9538596708524756 12.57728519112485 47.15429475229717 155.71427865957736 0.6171684767880642
1.9684740377928744 12.53335171980681 43.33001277686732 163.8549469360064 0.6324944427789189
1.9821879420183617 12.487345197620595 39.87063162439326 172.4981698499048 0.6485476279657765
1.9949767845180801 12.439264859059058 36.73764097224407 181.68313174506318 0.6653808226196208
2.0068112930292683 12.389101290718157 33.89722979303041 191.45190553903086 0.6830486567194083
2.017657036011767 12.336821920290458 31.320798038329304 201.85053863384204 0.701610381039154
2.027489001393414 12.282435086878445 28.98392031827255 212.92892461910168 0.7211284590084581
2.036299807647524 12.225962997851207 26.863713007187297 224.74270377245574 0.741673692259955
2.044042855526024 12.167362884702788 24.9375361211826 237.35291615671997 0.7633227721115484
2.0507005523290216 12.10665162095274 23.1826423935541 250.82651831465878 0.7861585479763505
2.0562722227634316 12.04389929030439 21.58963054131496 265.2367347019239 0.8102695376446443
2.0607160533395903 11.979045927978863 20.13726505704299 280.66504700860276 0.8357545356768646
2.0640199399630084 11.912146974993435 18.817506345420544 297.20149204859933 0.862721448973073
2.0661780136230123 11.843239991801257 17.615068963741944 314.94640560601545 0.8912905569619283
2.0671698923422164 11.77234183801093 16.52082717675591 334.00912841437827 0.9215874210078187
