M[M_sun], R[km], Lambda[1], P_c[MeV/fm^3], rho_c[fm^-3]
0.24162668629717493 15.618656898711224 2160425.4255784233 3.5677272577965504 0.1711233750220791
0.2536404302195769 15.27738238305772 1723279.772748558 3.7847704098963044 0.17388755984738796
0.266034103608325 14.981391041987719 1383265.6744296853 4.011298067090222 0.1766654113839679
0.2788061104960194 14.723705829630951 1116648.9894616567 4.247567850620064 0.17945565423795543
0.29195744697488124 14.498589043401157 906044.4172520592 4.494204181038377 0.18226484076078422
0.30548903632697705 14.30142595118158 738820.9033495866 4.75135878361208 0.1850886012560622
0.3194018307032273 14.128373181940386 605205.0157800136 5.019720262770503 0.1879336934666293
0.3336970187899174 13.976213850083488 497858.57632704225 5.299503968626138 0.19079657033606176
0.34837250440074613 13.842270002489405 411155.85230423097 5.591448492876147 0.19368373077347134
0.36343152599393164 13.724230883208612 340779.41408576985 5.895708481208953 0.1965900047119999
0.3788797712100248 13.62025829275265 283427.9332009359 6.213153129825146 0.19952318093457808
0.3947098986292013 13.52865314902407 236508.2892069366 6.544049138461922 0.20247960346050686
0.4109288790620254 13.448100955377992 197964.55692367497 6.889080241107213 0.20546266874146177
0.4275320727537219 13.377269668191728 166174.24807561375 7.248959510374342 0.20847559899650167
0.4445220105222102 13.315132959463856 139881.02496532476 7.623959229333466 0.2115141548824366
0.4618985021904243 13.260740542415977 118047.7740084573 8.01500164949292 0.21458408638597373
0.4796571522580063 13.213329136791053 99873.25585258155 8.422803524329863 0.21768723707845677
0.4978082119343182 13.172140788474552 84698.73061733581 8.847823768199463 0.22082133782774246
0.5163413171824406 13.136540714064417 71986.75068705821 9.290899394840249 0.22398928607179686
0.5352533999652851 13.105968506055866 61317.567892149054 9.7529314309607 0.2271942459163552
0.5545533406803337 13.07994481876514 52339.35404332583 10.234728688381347 0.23043756705232016
0.5742306272046416 13.05794731482091 44765.36080364805 10.736787705637035 0.23371627238426926
0.5942787651807879 13.039615719780187 38360.054768336886 11.260302129728714 0.23703591225487178
0.6147105017433168 13.024572724442136 32928.504035681304 11.80623264811858 0.24039840912861157
0.6355051380752821 13.012505761070017 28318.10685661541 12.375557267799815 0.24380539416430907
0.6566708363643241 13.003065358243152 24392.349610165333 12.968999670210946 0.24725521356740135
0.678195897583924 12.9960146202733 21046.56034711207 13.587816714219395 0.2507518752690495
0.700076618240303 12.991092608035231 18189.283348091743 14.233237936204167 0.25429839192558534
0.7223033169411449 12.988015324309925 15743.592746060822 14.906451721103089 0.25789674566755266
0.7448844556178966 12.986644324212724 13647.564911899652 15.608532465022089 0.2615472877183528
0.767796472157912 12.986758547348533 11847.199574468783 16.34065589731147 0.26525101616238345
0.7910337975631782 12.988126267354978 10300.319617392652 17.104479353900523 0.2690130555321106
0.8146011353162035 12.990635717907274 8966.33796214407 17.901456162916844 0.27283583502290315
0.8384738843001894 12.994110370080822 7815.0236218174405 18.733006561919773 0.2767209353701295
0.8626482862173386 12.998365453080801 6821.948115741319 19.60036345159856 0.28066784849695614
0.887115400143877 13.003304896635711 5961.92988677261 20.505663491589548 0.28468341288693966
0.9118673874120442 13.008803087065854 5216.748709636966 21.450698517462317 0.2887706373347753
0.9368793267905751 13.014688983158551 4570.406467176813 22.437022397408814 0.29293001310218086
0.962150562491169 13.020878100026113 4009.2185579930447 23.46651826769983 0.29716420858275744
0.9876679268961396 13.027276268929203 3520.723550907339 24.54167320749461 0.3014798703538859
1.0134067846293324 13.033742461862023 3095.8000827675974 25.66451162928634 0.3058792500462436
1.0393573576296145 13.040190100285209 2724.7600219466103 26.83682661105258 0.31036237330076527
1.0655034654339193 13.046517860328834 2401.221836804691 28.06179124509074 0.3149385704927965
1.0918247234481704 13.052644048646567 2118.4678396998424 29.341556091738852 0.3196089561865495
1.1183154907065191 13.058480243901101 1870.9615029569766 30.678680207794624 0.32437688033980605
1.144939463170916 13.063942439654081 1654.0810917013373 32.07675817334702 0.3292517280080474
1.1716948210972464 13.068950800493223 1464.0259686724035 33.53752484484647 0.33422986697939283
1.198542786112463 13.07341643559883 1297.1350280899833 35.06560819562209 0.3393254584692624
1.22548176917479 13.077295602962613 1150.5270941711983 36.663160151358916 0.3445360630393492
1.2524699517040754 13.080459848186303 1021.5279481298536 38.33498435140557 0.3498746278337032
1.2795069780525226 13.082911020415368 907.9560378403727 40.083552387979275 0.35533913642782905
1.3065427947702588 13.084508551348765 807.9384635671643 41.91422859786437 0.36094352753348463
1.333574123237156 13.085229960686082 719.5790724671153 43.83031947600678 0.3666887825380444
1.3605758548290288 13.085040581886313 641.5221637910015 45.83682026462795 0.372584381231244
1.3875018877051561 13.083795214372183 572.6131134850222 47.938901791826915 0.37863940347512187
1.414352819804113 13.08151933237329 511.55831873898455 50.14112674482452 0.38485853930046016
1.4410791224320332 13.078105471849412 457.5341938241358 52.449068224988935 0.39125062000162775
1.4676608239409688 13.07350982124849 409.5930263432788 54.868953645900845 0.39782638756541916
1.4940684736065497 13.067657466068075 367.10280302920717 57.406961219163506 0.4045948834675032
1.5202777296371273 13.060532518520555 329.3300338137466 60.06970622203691 0.41156585766597165
1.5462575384828416 13.052068652272217 295.73784630976564 62.86428033256644 0.4187498269090556
1.571971301105363 13.04220888813361 265.8628523249797 65.79829472918259 0.42615813779921186
1.597393237199632 13.030906630409769 239.28368836897351 68.879927336696 0.4338030351702882
1.6224805693174857 13.018108483393545 215.56857441305107 72.11797464808596 0.44169773640265386
1.6472319734252352 13.003799281406735 194.3996799828934 75.52190860529407 0.44985651237666774
1.671581564941526 12.98789525724051 175.50489057679954 79.10191491214314 0.45829467489584097
1.6955204787706453 12.970376642516351 158.61833142865956 82.86763601749638 0.46702324041638965
1.718993086079797 12.951189880671677 143.5076045965533 86.83204122449399 0.4760648134704311
1.7419988204836148 12.930309342276098 129.9852848498543 91.00699082192973 0.4854349216456649
1.7644774721536094 12.907683446233952 117.86463230444205 95.40593807803569 0.4951530160834966
1.7864041569609055 12.883276730661967 106.98753606384349 100.04315019636941 0.5052390505037697
1.8077467337219872 12.857051941003393 97.23295971067175 104.93480728908197 0.5157174441083936
1.828473344086138 12.828985585354687 88.47282011510504 110.09716332538065 0.5266097517296907
1.848551983015053 12.799032199477901 80.59128186252688 115.54819307599445 0.5379407405757335
1.8679440383781665 12.7671699423653 73.49818326294209 121.30802594550522 0.5497395335271226
1.8866225180157727 12.733366713223337 67.11308899083573 127.39793131937381 0.5620354744646103
1.9045547372041505 12.697590304263114 61.35309337120427 133.84069499013316 0.5748591965492127
1.921707716066549 12.659824914528974 56.16124334202987 140.6611422280795 0.5882440827918505
1.9380389084906047 12.62000893412445 51.47226505202962 147.887278909412 0.6022297205922615
1.9535345188730027 12.57816502785193 47.239103885404404 155.5479887391627 0.6168533407430228
1.968171496042305 12.534310459941526 43.406954628332635 163.6761050462733 0.6321599136536219
1.981904284957155 12.488365878407558 39.94163641940256 172.3057271146205 0.6481923034963274
1.9947051805915472 12.440339755676055 36.801303814441205 181.47609345018213 0.6650036994947465
2.0065550425636802 12.390220736958371 33.957269483747865 191.22892762160663 0.6826478066430368
2.0174238383137575 12.33801742203726 31.373744431758645 201.6101384621697 0.701183694447957
2.027279739578777 12.283689693365144 29.037184285723303 212.67007089694414 0.7206756099082697
2.036109128050741 12.227281528413483 26.910488174784994 224.46300141229807 0.7411902200716537
2.043875245113824 12.168748493132075 24.978176063135553 237.05100290213306 0.7628079822782537
2.050557432599646 12.108105768428942 23.222402160872843 250.4997234740813 0.7856079049480302
2.0561459448819046 12.045390955244555 21.624996161213456 264.8829481351782 0.809680816243013
2.060622248016513 11.980625787832293 20.17012541820754 280.28214995544255 0.8351260336047441
2.063958721697205 11.913805666299838 18.848153237974113 296.7863911067775 0.862048911069072
2.066140167692599 11.844953176985168 17.6436389256722 314.4954845557193 0.8905687210497488
2.067159115083673 11.77412765008739 16.546575018580185 333.5194141808372 0.9208139564940375
