M[M_sun], R[km], Lambda[1], P_c[MeV/fm^3], rho_c[fm^-3]
0.24162668629717493 15.618656898711224 2160425.4255784233 3.5677272577965504 0.1711233750220791
0.25363206833204666 15.277609104519557 1723559.938810151 3.7846097909188394 0.17388555780931902
0.2660156901995399 14.981794827010342 1383510.5426107757 4.010960429961683 0.1766613312385293
0.2787777138920105 14.724214026890753 1117150.5310415896 4.247041789037915 0.1794495527163604
0.29191868546338384 14.499212966658973 906596.5622429985 4.4934759078000095 0.1822567312692516
0.3054395042274921 14.30210716724586 739389.8577956356 4.750403590245352 0.18507828334468757
0.3193403656081228 14.12906329840215 605705.7134189401 5.018531131039876 0.18792135576596136
0.33362256307314825 13.97689992365794 498331.8680839265 5.298049615320631 0.19078192741148384
0.3482870398375189 13.842996396069436 411607.9104576645 5.589725305298505 0.1936670584596251
0.3633313013766329 13.724962750709949 341185.97794939077 5.893677773416421 0.19657093187466884
0.3787671474594257 13.62094236368014 283789.621452053 6.210790354356962 0.19950163526727507
0.3945800172177975 13.529382242838553 236862.81923826522 6.541356766850437 0.20245599499869002
0.4107858272757595 13.44875761363752 198269.4197049724 6.886006334175401 0.2054364900601155
0.42737360682197734 13.377869496520773 166436.52715477624 7.245475255575527 0.20844677464948907
0.44434679761471285 13.315714184229144 140132.00380625113 7.620074273690509 0.2114832281375004
0.46170621678088675 13.261304805222617 118261.91226400546 8.010648279010574 0.21455040954574392
0.47944916326895803 13.213819727356713 100066.1050938537 8.417947831365057 0.2176507290554957
0.49758208416225813 13.172608171084251 84870.37533840814 8.84248367031281 0.2207826732373948
0.5160938636603661 13.136967475306255 72146.12219531843 9.28498853717656 0.22394767326534545
0.5349897852352735 13.10635022331062 61455.541883612386 9.746409783630517 0.22714959526662368
0.5542705862007111 13.080288191041994 52459.62078088329 10.227553791210727 0.2303897850361003
0.5739239991363402 13.058241971603094 44465.11251958237 10.728990740443788 0.23366621345253108
0.5939597791769087 13.039888079265753 38114.57775703753 11.251765934549262 0.236982577952917
0.6143669390388447 13.02479425238727 33012.91374392566 11.796906856086611 0.24034169275331677
0.6351394586761131 13.01267855126818 28391.669962213007 12.365388372379025 0.24374518337996035
0.6562796829533141 13.003213108208397 24458.74253400496 12.958034364539271 0.24719254037671726
0.6777866177025547 12.996129315510196 21104.917340561624 13.57589942109735 0.2506855229737799
0.6996442121180112 12.991172408774231 18241.18904139199 14.22030483594605 0.25422822922548494
0.7218483140417298 12.98805591114594 15790.042350546646 14.892434896775649 0.2578226334336516
0.7444041799195795 12.98666506681407 13687.687899121129 15.5934962907374 0.26147043276929804
0.7672940547847986 12.986737044709864 11884.541814014463 16.324396938563314 0.2651699693309116
0.79050807878052 12.988081729920287 10331.729563556586 17.086916113467815 0.26892765144129854
0.8140449474256121 12.990562403162425 8994.43502973448 17.882501744701326 0.2727458976637764
0.8378994419774602 12.994013447511032 7841.733343898156 18.712679375167948 0.27662726213175187
0.8620513321209693 12.998262861394581 6844.671145355531 19.578531548431926 0.28056990251610825
0.8864888201713004 13.003179676290253 5982.324241948151 20.482156311367532 0.2845804007783609
0.9112167995983173 13.00864193798593 5235.203315904129 21.42540393986926 0.28866233327850244
0.9362088614312795 13.014532127415697 4586.8130568039105 22.41004572361549 0.29281796735743226
0.9614506493373564 13.020705908389647 4023.8274759766537 23.43752132036647 0.29704644336380415
0.9869421593123916 13.027087926467926 3533.528199781461 24.510519683550896 0.3013561121925297
1.0126525915793716 13.0335489753794 3107.2551492408375 25.631262163981138 0.3057507248205691
1.0385772015369357 13.039984723621433 2735.1136830082514 26.80119564562033 0.310227765929414
1.064703176341349 13.046333462779502 2410.3488369459483 28.023552354844004 0.31479710821022994
1.0909993706707937 13.052451067682922 2126.701134824125 29.3008446884753 0.3194624201317297
1.1174656083809607 13.058304614578205 1878.18273589395 30.63501081768031 0.3242228337364719
1.1440660976618204 13.063777038247544 1660.6555523972747 32.029926199686194 0.3290897648250421
1.1707986746042334 13.068801281135368 1469.9776502185555 33.487679690031555 0.33406188366841605
1.197624151025872 13.073267466932768 1302.476185706951 35.012167945850834 0.3391487460509533
1.2245417515477999 13.077167291741468 1155.360856270677 36.60627973155284 0.3443525756099545
1.2515071039137744 13.080356174400182 1025.9170835604673 38.27401017617095 0.3496814750134281
1.2785231996163215 13.08284032783091 911.8447073345627 40.01864323667577 0.3551383291984424
1.3055421899535915 13.084468130945021 811.3387335986191 41.84507420983845 0.3607343542382447
1.332559913672372 13.085247555904344 722.7142600878418 43.75623066862743 0.36646855228660336
1.3595376756273234 13.085068076481585 644.4143822812955 45.75790979374184 0.3723549203010844
1.3864474257056514 13.083864186170754 575.1544943205099 47.85474724637119 0.3783996677979317
1.4132741143992211 13.081611960413834 513.8509433418976 50.050979270741145 0.38460593614362154
1.4399938956178975 13.07826827253675 459.594983562717 52.35298492623971 0.39098681126256346
1.4665602866516756 13.073705787856607 411.4890590208841 54.766509686514176 0.3975506268508946
1.492958391384567 13.067930143114435 368.7616561205274 57.297697380883584 0.40430636673536247
1.5191586575294016 13.060870987154791 330.83916300400745 59.9531258289769 0.41126371849629684
1.5451305126167498 13.052463227279786 297.11685265971414 62.739845869297504 0.41843313130705767
1.5708378857338978 13.04267659193867 267.11317720984346 65.66542411815414 0.42582587847967124
1.5962544836962502 13.031445130229452 240.38900644715054 68.73798983673274 0.43345412526745614
1.6213489118674995 13.01873473702717 216.5753236128955 71.96628633101032 0.4413310025428491
1.6460811509637503 13.004495587701378 195.3340599069282 75.35972736240456 0.44947068704325577
1.6704366762807363 12.988668474232925 176.34281087629873 78.9284591073299 0.45788848896072143
1.6943784520614205 12.971253036539972 159.38376614818034 82.68286643630152 0.46659864045694016
1.7178706835336826 12.952171657706517 144.20318446163492 86.63418718194487 0.4756167714100984
1.7408753821034957 12.931383212076849 130.62195209767725 90.79596990168302 0.4849654777721245
1.7633550630566568 12.908835383980824 118.44136411698106 95.17972102692931 0.49465664536155624
1.7853029421757387 12.884557995014026 107.51221677355744 99.80154015065665 0.5047176665070766
1.80665182905067 12.858428066983853 97.71834304325351 104.67609382879475 0.5151673039048615
1.8274048494435418 12.830499638300553 88.90337364976692 109.81981099010625 0.5260280999412595
1.8474934826199592 12.800640942433908 80.99089484978319 115.2513077576214 0.537327477955222
1.866919407869623 12.768930858386748 73.86131857360623 120.989977717229 0.5490921038860251
1.8856154540948196 12.73522407545261 67.44282449923801 127.05693771470854 0.5613511030208829
1.9035740981899623 12.699583315781618 61.65992665873449 133.47520278337174 0.5741362719884116
1.9207617600891247 12.66196505558513 56.44132934950936 140.2695179032832 0.5874810496799433
1.937145703708153 12.622351222307525 51.729184991500844 147.46632808961525 0.6014200007467732
1.9526858449574267 12.58067726052035 47.46852463095216 155.0964282184152 0.6159974426533981
1.9673477678702391 12.536928200439363 43.62002159910905 163.18997969749213 0.6312496760078387
1.9811336477991457 12.491165524535129 40.13375435499976 171.78331884658513 0.6472277337483385
1.9939839989410182 12.443294805544195 36.981443622309385 180.9140959614518 0.6639800132764878
2.0058673211451596 12.393300270465122 34.119429841479956 190.62369856645475 0.6815597791119594
2.016784294112511 12.34124510051321 31.527887903395634 200.9576603657306 0.7000256101884346
2.0266968204550677 12.287095769177487 29.174445299448415 211.96612085302598 0.7194419074291479
2.0355837527581 12.230846596554436 27.038325025206706 223.70394677892378 0.7398781760673383
2.0434171436710837 12.172510284621852 25.09536033587296 236.2304441139027 0.761406861530145
2.0501684586250013 12.112059911063438 23.329994165776455 249.61254140444163 0.7841123165162782
2.055814827874903 12.049500340748994 21.724705312208346 263.92304014040735 0.8080834735702354
2.060358936891943 11.984910709911029 20.262438792859722 279.2422323092702 0.8334172863917082
2.0637745797306843 11.918284837797296 18.932122741532467 295.65923590405316 0.8602209824701753
2.066029990745509 11.849615702393512 17.720398042064293 313.27229656787557 0.888610637663772
2.067125763098798 11.778973649365314 16.61635897067759 332.1905373228344 0.9187141307331339
