M[M_sun], R[km], Lambda[1], P_c[MeV/fm^3], rho_c[fm^-3]
0.24162668629717493 15.618656898711224 2160425.4255784233 3.5677272577965504 0.1711233750220791
0.25364490647671584 15.277247422393467 1723221.8008239374 3.7848365534451713 0.17388838429481587
0.26604109182355173 14.981242966248844 1382983.2765114945 4.011437113344412 0.1766670916758903
0.2788172760933849 14.72349296174795 1116430.781055756 4.247784503024138 0.1794581670793545
0.29197305806289525 14.498356591146372 905852.3022207994 4.4945041239849095 0.18226818069510697
0.30551032891794994 14.301134425044598 738607.7093299263 4.75175220070017 0.18509285091146135
0.31942837571892224 14.128053193627958 605045.8445576917 5.020210051231386 0.18793877521095195
0.3337247591067947 13.975955068497466 497652.397914692 5.300103022222755 0.19080260181177003
0.3484090342651575 13.841959729713396 410961.554516753 5.592158306494733 0.19369059841549416
0.36347320320499227 13.723916868417477 340626.3554914025 5.89654500055844 0.19659786147875666
0.3789276615143725 13.619937118638205 283272.8986384595 6.214126476764249 0.19953205668667667
0.39476079310840023 13.528400864137732 236384.4370577864 6.545158301609134 0.2024893293229019
0.41098776290432465 13.44782800258584 197840.07389320902 6.890346631111938 0.20547345385016197
0.42759647691454117 13.377029171175089 166057.1435837075 7.250395009392182 0.20848747451198937
0.4445931757221737 13.314880159066783 139771.51955949698 7.625559869060227 0.2115268970038696
0.4619769296788597 13.260514334726633 117962.95663423669 8.016795346653364 0.21459796208365164
0.47974285468763833 13.213123490995537 99788.090463007 8.42480426408671 0.2177022798444454
0.4979013546654258 13.171946858662617 84625.86473981294 8.85002417291455 0.2208372696980403
0.5164417439301832 13.136369425742322 71927.10909091884 9.293335070920284 0.224006433383247
0.5353623492241972 13.105806269563445 61263.768459928186 9.75561889072431 0.2272126456884522
0.5546700452665503 13.079775256288471 52293.17964430748 10.2376854474073 0.23045725791399757
0.5743551653646287 13.057810189115347 44718.871738034075 10.740000916516081 0.2337369021934409
0.5944135657591013 13.039520185946579 38321.562710711936 11.263820110149085 0.2370578926602007
0.6148531772478697 13.024501926622465 32894.79244169025 11.810076177782966 0.2404217842017587
0.6356587925180646 13.012416919950176 28284.813710804876 12.379748422682564 0.24383021030336596
0.6568311596290175 13.003006605083737 24364.868423239626 12.973519204053405 0.24728104536952278
0.6783647418104284 12.995968195689775 21022.635395341098 13.592728799175697 0.2507792244420599
0.7002553004480404 12.991056832561949 18167.661219134457 14.238568906383698 0.2543273126989874
0.722491529256229 12.988002928430872 15725.07561912719 14.912229602477654 0.2579272955043689
0.7450806378205467 12.986647587808097 13629.930058388301 15.614730714728285 0.2615789690593894
0.7680034105074449 12.986757366492604 11832.789780542129 16.34735844373648 0.2652844266752554
0.7912514641229585 12.988140054588007 10287.15841026179 17.11171983091225 0.2690482635199874
0.8148284504719501 12.99067254574325 8953.708475138408 17.909270434066418 0.27287291318076073
0.8387121795641976 12.994131558874228 7805.3112318105 18.741359969753507 0.27675931495695616
0.8628949678435545 12.998418705423212 6812.144268818577 19.60936459820396 0.28070823096504843
0.8873778005600209 13.003369227827404 5953.583351627921 20.5153556928421 0.28472588561562795
0.912137098594231 13.008856484790897 5209.6854066481665 21.461128055135138 0.28881529359483193
0.9371581539106627 13.014756798264722 4563.833471329217 22.44814582910238 0.2929762135047143
0.9624439924266156 13.020966112301677 4003.1720958568185 23.47847516701839 0.29721276910363104
0.9879652926486866 13.027358122501333 3515.3492373014283 24.554519845724183 0.3015309039489865
1.0137093765327054 13.033811482779992 3090.812886995071 25.67819828318309 0.3059320694795319
1.039676123240648 13.040269860320644 2720.5133199387287 26.851520580267213 0.31041788447052177
1.0658303698281937 13.0465878673223 2397.3152243373593 28.077561300502087 0.3149969107851087
1.0921645521293626 13.052719958180106 2114.948434210839 29.358346347082307 0.3196693907965166
1.1186651917341612 13.058554029714207 1867.7412311765352 30.69669109292341 0.3244404149041741
1.1452981029908331 13.064014375119067 1651.4917012741453 32.09593531488164 0.32931763213386167
1.1720606275007222 13.069019501836776 1461.4510429938248 33.558084294903566 0.33429915444585323
1.1989202970938861 13.073476325412342 1294.9092874704254 35.087651377421615 0.3393983492955533
1.2258686622821657 13.077342587944962 1148.5883230800423 36.68662310502589 0.3446117508958917
1.2528657801670193 13.080497662503573 1019.762407052805 38.360088637202345 0.34995402225092503
1.279910688084529 13.082944892859738 906.3477874943509 40.11032914677175 0.35542197477399584
1.3069548673592113 13.084528543800461 806.4821342521576 41.94274014573923 0.3610297222621909
1.3339946414132446 13.085240483906722 718.339151894258 43.86088542031703 0.36677964033207683
1.361003432270764 13.08503376016279 640.3754321928328 45.86937656863632 0.37267905054086076
1.387937050372993 13.083770283733083 571.5662971631795 47.973587489429164 0.3787381301672847
1.4147877136567704 13.081460352004346 510.6322652988983 50.17832210727038 0.3849627648050471
1.4415189284171714 13.078019978614867 456.6923879021882 52.48871421478507 0.39135947303553925
1.4681146739024462 13.073418227593526 408.84426726070154 54.91122577980971 0.39794017654742436
1.4945260427940628 13.067543556020729 366.3859651780819 57.45204922949762 0.40471394065609473
1.5207376735992444 13.060394155398392 328.71326994726945 60.11781532926306 0.41169054111684683
1.5467213282240595 13.051902832993402 295.16355441583175 62.915632644876794 0.4188805226265753
1.5724379391555618 13.042017961604706 265.3498910729271 65.85313078317014 0.42629526210264646
1.597851388770385 13.030676411263428 238.80943164609235 68.93850779499215 0.4339470372981068
1.622949340692666 13.017856342301018 215.14551214060074 72.18058217176595 0.44184910138088435
1.6477019617569058 13.003507482084084 194.01083108371856 75.58884992106678 0.4500157641804946
1.672050809236382 12.987568442736457 175.15325605254154 79.17317363303802 0.458460920676436
1.6959876868616879 12.970009815408991 158.29831575664238 82.94390723699632 0.4671985114566627
1.7194680328589524 12.950791588316498 143.21482179381792 86.91371748252696 0.4762497700093923
1.7424492791450954 12.929848056211643 129.72294556157868 91.0941061187896 0.48562872111519
1.764931348507238 12.907185997028803 117.6263070517406 95.49933143883818 0.4953579419708214
1.7868567619234799 12.88274813132567 106.77745611195148 100.14290293557517 0.5054543125873256
1.808194122403443 12.856479264752021 97.04510394874805 105.04143656725014 0.5159438716040874
1.8289088721817186 12.82834616235445 88.29532178406332 110.2114825498564 0.526849169580741
1.848981350394476 12.798356609777679 80.42499456002062 115.67078531832799 0.538193973845064
1.8683559660783582 12.76641046478934 73.3555937670972 121.43936353455405 0.5500068887285691
1.8870312579615183 12.73258378844851 66.97698484074989 127.53865778223549 0.56231776469911
1.904953281258221 12.69675671066395 61.230509350298306 133.99128688620806 0.5751565117104334
1.9220924007325912 12.65892908851312 56.04922488361093 140.82288788376778 0.5885592248378955
1.9384039584017467 12.619030906182605 51.36693666484753 148.06114669946678 0.6025641639368938
1.953897973414537 12.577175547238923 47.14384574488205 155.7344697536209 0.6172067409324338
1.9685118904613075 12.533232326508006 43.32138269545013 163.87662635521332 0.6325349401141659
1.9822227625673003 12.48722396534282 39.861951588325816 172.5215372491401 0.6485907733135259
1.9950065848985792 12.439130620155044 36.72800900961761 181.70827184650582 0.6654266156629859
2.006842095497459 12.388962521689763 33.88837211311368 191.47898163041162 0.6830973317336123
2.0176849633386857 12.336677187381314 31.314777275793997 201.8797308425668 0.7016621943300664
2.0275177229854875 12.28228436137086 28.978417234722567 212.96035822973425 0.7211834502296466
2.036322941595418 12.225801645296212 26.85762384595152 224.77666979346196 0.7417324033358805
2.044063232816895 12.167196305408938 24.931639734436597 237.38958009116845 0.7633852874877894
2.050718536226789 12.10647514021813 23.178253407314738 250.86614510397715 0.7862252247693062
2.0562864252371513 12.04371551272336 21.585325593774158 265.2796839841962 0.8103409824051518
2.0607273486240634 11.978854068271355 20.13330558804433 280.71151390819153 0.8358307522072663
2.064028082400082 11.911945541869303 18.81393863710837 297.25190563730706 0.8628031280199425
2.0661842785897 11.843030953237998 17.61162797291584 315.00117079616524 0.8913782252598742
2.067171124143747 11.772126438998322 16.517253083799478 334.0686064838183 0.9216813618674246
