M[M_sun], R[km], Lambda[1], P_c[MeV/fm^3], rho_c[fm^-3]
0.24162668629717493 15.618656898711224 2160425.4255784233 3.5677272577965504 0.1711233750220791
0.25364333733000727 15.277294912434844 1723160.9195442288 3.7848092994231575 0.17388804458657925
0.2660381742203438 14.981317448138217 1383130.8420323394 4.0113798198159865 0.1766663993174116
0.27881319440387026 14.723560522920891 1116462.319103213 4.247695231521359 0.17945713166445154
0.2919665236980767 14.498466339286399 905949.1064702936 4.494380531812291 0.18226680446758062
0.30550122593724105 14.301278530153873 738692.266005418 4.7515900911671975 0.18509109981911456
0.31941705359744343 14.128192161185215 605134.3956640452 5.020008230051224 0.18793668123831195
0.33371477477841094 13.976032708212827 497733.36310740444 5.29985617581132 0.19080011647799913
0.3483943748144205 13.842080150670142 411037.6574098842 5.591865818387374 0.19368776851259475
0.36345636860213126 13.724028354956742 340680.6016944224 5.896200299390994 0.19659462397244545
0.3789085037847203 13.620048787940188 283337.02427184297 6.213725390963022 0.19952839926710822
0.3947395817725748 13.528510557110243 236417.10582903388 6.544701247454287 0.2024853215754138
0.41096359114733527 13.44792391446224 197888.54423966655 6.8898247849364065 0.20546900958914688
0.42756961077466055 13.37711713631226 166105.95699257558 7.249803474026176 0.20848258089150393
0.4445643435782604 13.314973014609759 139817.23364018745 7.624900279307954 0.21152164624532668
0.461944500697318 13.260622656608067 117996.18817204598 8.016056197358349 0.21459224416627817
0.47970780241628896 13.213195009777236 99820.42296001977 8.423979791207238 0.2176960809609837
0.49786397869510035 13.172016271953842 84657.30395072843 8.849117416295686 0.22083070439269242
0.5164005943827618 13.136427365271569 71949.39162666528 9.292331355981036 0.22399936716750035
0.535316864373372 13.105878334711198 61286.14836392853 9.754511411700879 0.227205063300835
0.5546233427186492 13.079856494171153 52309.04290435268 10.236466984975024 0.23044914342952236
0.5743034286324206 13.057890213152216 44737.257056294904 10.738676764833743 0.23372840072946943
0.5943585854371769 13.039543010991322 38336.04898248173 11.262370355280703 0.23704883456554784
0.6147941158311363 13.024518756130046 32908.1775774325 11.808492254868334 0.2404121513077207
0.635594124695768 13.012443582965858 28297.174251094835 12.37802123250459 0.24381998348215955
0.6567652044786425 13.003027290455886 24376.20931203044 12.971656678169158 0.2472703999353331
0.6782952093901914 12.995983281597653 21032.50939936229 13.590704488448615 0.25076795362227683
0.7001821204177145 12.991070325888012 18040.675014409804 14.23637195627136 0.2543153941374058
0.722413588724888 12.987996202768347 15733.20313470134 14.909848460991121 0.2579147055117515
0.7450001409720765 12.98664693446995 13541.006578222667 15.612176321040277 0.2615659126932525
0.7679179420209996 12.986763335250634 11837.939349258924 16.34459620485742 0.2652706576072367
0.7911618476568979 12.988129230646567 10291.628125780013 17.108735883060294 0.26903375359203285
0.8147338821191694 12.990658254735992 8958.312082883574 17.906049994279865 0.272857632424246
0.8386145044616886 12.994116449546423 7809.48820189585 18.737917322203234 0.2767434977727364
0.8627928762241729 12.998397072476122 6816.343092199083 19.605654978555222 0.28069158824121926
0.8872673499211245 13.00333255042633 5956.569454074808 20.51136124591016 0.28470838132982335
0.9120254174155009 13.00883036244089 5212.5414790165005 21.456829703017767 0.2887968892958122
0.9370434901660626 13.01472594050749 4566.443401160013 22.44356147754358 0.29295717271827304
0.9623198424305482 13.020926143687637 4005.901672460007 23.47354728362392 0.2971927555049493
0.9878445433034173 13.027313206321804 3517.638139213334 24.549225234285885 0.3015098709712122
1.0135835145579655 13.03377888251899 3093.091922894513 25.67255743891827 0.3059103003751487
1.039544997177976 13.040227781726232 2722.2704104428376 26.84546454022417 0.31039500584174756
1.0656948647660158 13.046558785979256 2399.02170261299 28.07106171522762 0.31497286599294216
1.0920235291134957 13.052691300914288 2116.3117522348302 29.35142625286165 0.31964448270628176
1.1185200909236437 13.058525496120938 1869.1407723617126 30.689267867852834 0.3244142289967247
1.1451497596750269 13.063983304629755 1652.5888313670257 32.08803318748993 0.329290481202472
1.1719109919741069 13.068995036601326 1462.6172758023015 33.549610570827895 0.3342705971220407
1.1987652487732887 13.073453194962562 1295.8280416132861 35.07856606077326 0.33936830661643214
1.2257088518750183 13.077322162619474 1149.4323895593225 36.67695256146072 0.3445805552193184
1.2527025934764806 13.080488032692308 1020.505069762719 38.34976994815662 0.34992146536288543
1.2797427263609382 13.082932430656237 907.0113563427522 40.09929263752463 0.35538783150144476
1.306786365562642 13.084514992744893 807.0136949152923 41.930988544413005 0.3609941953910219
1.3338205541410988 13.085238973456278 718.7856286936319 43.84828696707879 0.3667421912136125
1.3608268090369877 13.085033973275452 640.8365392858204 45.85595766228119 0.37264003018400066
1.3877574674661988 13.083779864968447 572.0109029681736 47.95929081179178 0.37869743720766075
1.4146121916806431 13.081492610434525 510.9895838048863 50.16299088470946 0.38491980502989576
1.44133523186017 13.078046026443367 457.0425138095269 52.4723727860105 0.3913146055947285
1.4679276760694255 13.073451498924467 409.15751366995613 54.89380178408088 0.3978932742845596
1.4943359959805553 13.067593365775641 366.66777426185405 57.433464444625365 0.40466486658471584
1.5205472006760974 13.06045351743787 328.9529926903489 60.097985146804554 0.4116391476131431
1.5465299163301474 13.051970481672772 295.3940259286026 62.894465492963725 0.41882665054209334
1.5722462433303912 13.04209601614796 265.56655715169614 65.83052749113662 0.4262387397884017
1.597669325780322 13.030774692134786 239.0079372015661 68.91436089326349 0.43388767953051177
1.6227562397324138 13.017961245246035 215.31373972815487 72.15477511966118 0.44178670817875104
1.6475082152007343 13.003631122615559 194.16464735798175 75.56125625425818 0.4499501195010803
1.6718569571905226 12.987702925659931 175.29927115395594 79.1438001119629 0.45839239258782266
1.6957949324867243 12.970162532627377 158.4239815693047 82.91246726563294 0.46712626249403766
1.7192599472830914 12.950922163109542 143.33846725248085 86.88004920998557 0.4761735279371913
1.7422628962668085 12.930027035114895 129.8266994499757 91.05819553113906 0.4855488332758797
1.7647426267813116 12.907388103071453 117.72386891168175 95.46083258243493 0.49527346688349577
1.7866708842166354 12.882961748452477 106.86163834135522 100.10178228793397 0.5053655760136847
1.8080099214215575 12.85671601289721 97.12334447336667 104.99748088905304 0.5158505316293012
1.8287222450939944 12.82859386192929 88.36269580194083 110.16445924814461 0.5267508563654248
1.8488030309273145 12.798638760010958 80.49413819968593 115.62024835287914 0.5380895819134127
1.8681913099619818 12.7667442601518 73.40952010520529 121.38522095400205 0.5498966742756075
1.8868642577486163 12.732903543780338 67.03395673026392 127.48069928277354 0.5622015891067365
1.9047890199479243 12.697100807439115 61.28012436264076 133.9292058623593 0.5750339444933691
1.9219342384786589 12.659298528744817 56.095731556514814 140.75620812517872 0.5884293073111333
1.9382513957461827 12.61942046662432 51.41119771830714 147.9894688798898 0.6024262880847436
1.953748392659955 12.577596775080579 47.177898231114575 155.65759137746088 0.6170610487139766
1.9683707708551497 12.533679670472685 43.35522293785461 163.79408152450867 0.6323807456844143
1.9820912314306163 12.48769484765149 39.894969946522494 172.4325658970501 0.6484264974398181
1.9948852279490712 12.439632685164439 36.75961845047511 181.61255143377863 0.6652522596039646
2.0067196640625795 12.38947034862835 33.91769239402454 191.37589053706984 0.6829120036387201
2.017578353935165 12.337228981371473 31.339647861387363 201.76858334771512 0.701464918490501
2.027418251015233 12.282860488620575 29.001779395754866 212.84067738102956 0.7209740757451154
2.0362349631667924 12.226409964430445 26.879422465762 224.64734778990845 0.7415088671740181
2.043985518529767 12.167833483400113 24.950995263085915 237.24998688506912 0.7631472682481397
2.050651624452789 12.107146127589186 23.19650607939585 250.71521370859722 0.7859711727742482
2.0562250074054385 12.044394722552084 21.601368481202613 265.11611760719666 0.8100688237913126
2.0606844701408793 11.979584221044249 20.14925455553661 280.534600542785 0.8355405731117744
2.063997310373967 11.912705046078392 18.827697181482733 297.0599673653333 0.8624921536276314
2.0661655713256772 11.843823064292886 17.6247551182374 314.79266627913023 0.8910444505377834
2.0671649681903745 11.772949123132172 16.527697010557645 333.8421604710369 0.9213237084786161
