M[M_sun], R[km], Lambda[1], P_c[MeV/fm^3], rho_c[fm^-3]
0.24162668629717493 15.618656898711224 2160425.4255784233 3.5677272577965504 0.1711233750220791
0.2536443930704916 15.277262021313534 1723178.2044411947 3.7848269003497785 0.17388826397363863
0.2660407556255666 14.981234207197257 1382979.1731086064 4.0114168204966205 0.17666684644880076
0.27881620464477525 14.723478337676683 1116467.6209799722 4.247752883767299 0.17945780034362435
0.29197134890661647 14.498383485097436 905857.5677129097 4.4944603484836145 0.1822676932447403
0.30550736299234066 14.30119113589102 738665.6842930131 4.751694782432752 0.18509223068458883
0.31942377368514535 14.128111572464437 605076.5795613677 5.020138567113301 0.18793803353563648
0.3337241723806429 13.975845112051527 497672.2127160983 5.300015590109909 0.19080172151546976
0.34840383739087 13.842003715502456 410992.0256505202 5.5920547079604885 0.19368959607117636
0.36346706522989547 13.723961011150031 340623.58276449493 5.896422907926542 0.19659671475892032
0.3789208065528581 13.619980553126124 283301.51223192323 6.2139844123573615 0.19953076123034255
0.3947522694845971 13.528455836494103 236398.5250326857 6.5449964127968 0.2024879097767188
0.4109791414157353 13.44787078282086 197857.79578157648 6.890161792393606 0.20547187968607208
0.42758666342199975 13.377052452205817 166068.13490508278 7.250185486047367 0.20848574117905394
0.44458374509123283 13.314904408653131 139799.1691931452 7.625326240070163 0.21152503716688575
0.46196529962476024 13.260568722796359 117976.24881342478 8.016533536648655 0.21459593677160094
0.4797306487307286 13.213136875007038 99805.2331468628 8.424512231254988 0.21770008416580525
0.49788906013331075 13.171960820598441 84639.63220903462 8.849702993927705 0.22083494422494632
0.5164285489701573 13.13637840837725 71935.47479599412 9.292979547680348 0.22400393047747355
0.5353465639083298 13.105835935595485 61270.20463405707 9.755226612383693 0.22720995994328733
0.5546537446583525 13.079792015488225 52301.76952914213 10.237253856611451 0.23045438368766133
0.5743365957239855 13.057831017141297 44727.44771947099 10.739531888476613 0.2337338908881408
0.5943949184153571 13.039508681715535 38322.84716476397 11.263306590761072 0.23705468418177159
0.6148314937104081 13.02450293523526 32898.69802871644 11.809515133024803 0.24041837211354655
0.6356373147611323 13.012433353029914 28289.53537629941 12.379136629231045 0.24382658782894265
0.6568079712227818 13.003021700819298 24369.12600293336 12.972859471386853 0.24727727460813687
0.6783404437501677 12.995972454398014 21026.028107507664 13.592011758091939 0.25077523214941233
0.7002294987306044 12.991049101644748 18170.879112714225 14.237790711714853 0.2543230909549291
0.7224644358162018 12.98800292222218 15728.190775882413 14.91138616197515 0.25792283591649484
0.7450516412221061 12.986653815301068 13632.753500550887 15.613825903313023 0.26157434426361964
0.7679732025849495 12.986756297593265 11835.34068877791 16.346380007187722 0.2652795494144602
0.7912199065861154 12.98814302263767 10219.262969661459 17.110662857992413 0.26904312381859924
0.8147950062967948 12.990661988841998 8955.342931615887 17.908129687901145 0.27286750042177377
0.8386776663612417 12.994126789530336 7806.622451170391 18.740140510257575 0.27675371217153766
0.8628585017448862 12.998402820431306 6813.434145462945 19.608050567815692 0.2807023357394119
0.8873405334012462 13.003362068394422 5954.6295239377705 20.513940766290023 0.2847196851880889
0.9120965064947294 13.008856275848975 5210.56860086672 21.45960547397133 0.28880877434320823
0.9371176219726254 13.014739174374245 4564.687567449327 22.446521936253387 0.29296946877832397
0.9624019052805245 13.020949060967299 4004.0756582820204 23.476729581572815 0.2972056797624726
0.9879233801319454 13.027340454880063 3516.22532777212 24.552644350220802 0.3015234534956911
1.0136649165304228 13.033797577574694 3091.7028721497145 25.67620013795249 0.305924358252266
1.0396307154327387 13.040254596629504 2721.0541259566244 26.84937535481426 0.3104097801950503
1.065782282390286 13.046581873528357 2397.8828015959234 28.075258951678908 0.31498839339567375
1.0921141299324646 13.05270725786372 2115.5331186902413 29.355895035501952 0.3196605675799403
1.1186102910787272 13.058551315976331 1868.2871646679905 30.69406154896822 0.324431139017482
1.145244813405383 13.064004791140524 1651.911805261323 32.093136121601596 0.3293080143814609
1.1720090703794308 13.069013682825629 1461.8980350683025 33.55508261413703 0.3342890384721838
1.1988660153149868 13.073464561455207 1295.2437372285617 35.08443303986737 0.3393877071257547
1.2258117367968153 13.07733449805829 1148.8867786600817 36.68319745095757 0.34460070026614714
1.2528084119149254 13.080500499183122 1020.0118934413499 38.356441762734455 0.3499425385928389
1.279852989803203 13.08293815952289 906.601960224336 40.10641959606388 0.3554098799302022
1.3068947658378698 13.084526415241637 806.6436203806397 41.93857727128568 0.3610171372620451
1.3339288681132846 13.085239506321754 718.4448382194367 43.85642254327872 0.3667663743534889
1.3609407186248412 13.085034912498585 640.5425998080495 45.864623041260025 0.37266522792896833
1.3878733873568692 13.083773509132893 571.7295145238486 47.96852300537254 0.3787237150108085
1.4147297355764294 13.081480491223143 510.73759914040005 50.17289112522968 0.38494754659486247
1.441453888224056 13.078028098116627 456.8107719572155 52.4829253573173 0.3913435790018302
1.468048072402223 13.073428708663114 408.9554734787146 54.90505341103505 0.39792356164075926
1.494457815854131 13.067561741434627 366.4776755433643 57.445465636825865 0.40469655634420065
1.5206703488005022 13.06041489992537 328.788626480429 60.110790537443 0.41167233509856244
1.546653896668242 13.051927821457836 295.2527018386297 62.90813421148964 0.4188614385174531
1.5723697828350438 13.042045310865706 265.4249963802304 65.84512357349925 0.42627523908915926
1.5977950586387826 13.030715185767795 238.8882971930618 68.92995373395328 0.4339260097570647
1.6228810531556583 13.017890559362003 215.2002528094793 72.1714399702926 0.4418269984602503
1.64763299096549 13.003551430853191 194.06489722557538 75.57907477402591 0.44999250933733886
1.6719818043957275 12.987619653071718 175.19850826966243 79.162767936237 0.4584366443048481
1.695919542112483 12.970065402830627 158.34466452298224 82.9327694510245 0.4671729168569379
1.7193996530048608 12.95085141990082 143.25786398166116 86.90179026423728 0.4762227607282692
1.7423827175064959 12.929911900397391 129.75885025140667 91.08138450389559 0.48560042020470895
1.764864604627487 12.90726038547543 117.66200679368312 95.48569285580204 0.4953280158742925
1.7867912880511705 12.882824443567834 106.80909019092809 100.1283355082859 0.5054228767112253
1.808129315905025 12.856563382214336 97.06850395825784 105.02586474500036 0.5159108048069002
1.828838787330417 12.82842686662207 88.3166651041822 110.19482392445404 0.5268143408263484
1.8489179350307665 12.798458517268262 80.4525557084258 115.65288185382755 0.5381569914654167
1.8682942109977316 12.766517461608606 73.37736744657298 121.42018265300248 0.549967843482739
1.8869755749717259 12.73269327053613 66.99944042686937 127.51816471412916 0.5622767494458083
1.9048963825344445 12.696877696244643 61.24853398543286 133.96929351449927 0.5751130899657989
1.9220362681896879 12.659059427655578 56.06614449505157 140.79926522209672 0.588513198909716
1.9383504215950307 12.619169281649066 51.38344308126653 148.03575326024043 0.6025153183931395
1.9538464288977986 12.577323026813039 47.15868132400062 155.70723379169056 0.6171551260582175
1.9684613329973164 12.533392113208828 43.33152564255173 163.84738279475533 0.6324803129001995
1.982175896634616 12.487389143946281 39.873532880923804 172.49001677936036 0.6485325742124545
1.994964936957259 12.439311873609432 36.739246691135385 181.67436018676463 0.6653648451045555
2.00680121110735 12.389148473421894 33.89885047596695 191.4424585249068 0.6830316737088176
2.017646444906618 12.336873390493745 31.32346561301673 201.8403533210362 0.7015923031136218
2.027482088502344 12.282486270816742 28.98808313604394 212.91795729785505 0.7211092723360911
2.0362915608894867 12.226018694741928 26.86533826555161 224.73085291701005 0.7416532077741883
2.0440360022362913 12.16742148890798 24.93904995452667 237.34012402637146 0.763300960354199
2.0506947846971237 12.10671268593089 23.184591171178376 250.81269247793574 0.7861352843592753
2.056266610391045 12.043963907753636 21.590891930372333 265.2217441462128 0.810244592489008
2.0607126168261227 11.97911604918958 20.139369097459188 280.6488347496103 0.8357279437987467
2.064017691712804 11.91221582146153 18.81922078314132 297.18390285137866 0.8626929513219235
2.066176772655937 11.843312392844885 17.616056561868845 314.9272982095147 0.8912599697782662
2.0671689372755306 11.772416236555191 16.521459109806443 333.98837677973995 0.9215546454585363
