M[M_sun], R[km], Lambda[1], P_c[MeV/fm^3], rho_c[fm^-3]
0.24162668629717493 15.618656898711224 2160425.4255784233 3.5677272577965504 0.1711233750220791
0.25364214239856014 15.277346666231173 1723211.6569684362 3.784806245961038 0.173888006526647
0.2660383490472361 14.981294505316514 1383072.4719396154 4.01137340085055 0.1766663217480025
0.2788119048978515 14.723607052841647 1116464.646049587 4.247685229911008 0.17945701566084357
0.2919657318940056 14.49848955120695 905938.1176218915 4.494366685129936 0.18226665028155895
0.3055002288568355 14.301309879143691 738673.0311212828 4.751571929280486 0.18509090363607558
0.31941743456767047 14.12814975031128 605150.7462545001 5.01998561919948 0.18793644664199813
0.33371290013051913 13.976033752524076 497723.0536435417 5.299828520745065 0.19079983803737
0.3483926110269965 13.842096559729313 411052.5404229146 5.591833050083922 0.1936874514702446
0.3634537687227428 13.724071124610669 340694.2854787916 5.896161681704246 0.19659426126695914
0.37890630896243327 13.620066242409187 283330.8559311631 6.213680456602847 0.19952798951984793
0.39473632099587624 13.52854386909106 236438.41401311918 6.5446500430990735 0.20248487258239228
0.41096085630339657 13.447929293821856 197898.63615814218 6.889766322143035 0.20546851169546557
0.4275673778770935 13.377110447207155 166104.33107677224 7.249737204234977 0.20848203265850485
0.4445610298231962 13.315000012908317 139830.50506622202 7.6248263857047975 0.21152105800473214
0.46193965769483286 13.260663721453543 117998.78656573703 8.015973391135114 0.21459160359319548
0.4797029491470942 13.213217062085894 99832.47311884986 8.423887426712271 0.21769538650910475
0.4978591151663355 13.172027122890952 83783.65023875635 8.849015834110014 0.22082996889426543
0.5163954798249668 13.136451304448581 71951.1411820009 9.292218912285536 0.223998575556874
0.5353125970983434 13.105883553522489 61288.22506207834 9.754387344169364 0.2272042138688415
0.5546176130977207 13.079855685145791 52312.84606881221 10.236330484962329 0.23044823439268664
0.5742976526522428 13.057884592229087 44740.26901947459 10.73852842544145 0.2337274483446211
0.5943522331173753 13.039550320556017 38337.13837454686 11.26220794584057 0.23704781982842688
0.6147872360733009 13.02452538901479 32909.414413263665 11.80831481603544 0.24041107218356655
0.6355869871275016 13.012446670415086 28300.856969771045 12.37782774508688 0.24381883782880193
0.6567578933112034 13.003042369074315 24377.07801002882 12.971448030685364 0.24726920739187566
0.6782878266995491 12.995984703490198 21033.497143147113 13.590477718261232 0.25076669102662885
0.7001737984701187 12.991072146400072 18177.93815278326 14.236125847595565 0.25431405898582826
0.7224058129757553 12.988006994242273 15734.163665683067 14.9095817199306 0.2579132951512157
0.7449914079789712 12.986653867459173 13638.170180797553 15.611890172982639 0.26156445009419144
0.7679088369474135 12.986755098172472 11839.175330191385 16.344286775050406 0.26526911517725643
0.7911519826256568 12.988127321876735 10292.145536433542 17.108401618696636 0.2690321281776238
0.8147236954934493 12.990663231588965 8958.995602120765 17.90568923960971 0.27285592066913134
0.8386035337549536 12.99412262980087 7810.120871748989 18.737531677252893 0.2767417259337276
0.8627824698726775 12.998391134990582 6816.78581500943 19.605239429415263 0.28068972393430136
0.8872550120690371 13.003330299904217 5957.130217628525 20.510913792762253 0.2847064205207505
0.9120130054923152 13.008833530037535 5212.8592093098805 21.4563482091096 0.2887948276783318
0.9370312720322308 13.014721190616903 4566.934137170605 22.443047948495575 0.2929550398109667
0.9623067806715193 13.020920851794987 4006.1318001482837 23.472995275592968 0.29719051363631804
0.9878301788550715 13.027316663135426 3517.8100804105575 24.548632149307995 0.3015075149261457
1.0135695561506277 13.033775287225474 3093.197184543944 25.67192557260055 0.305907861881338
1.039530457517375 13.040228451650302 2722.506871287135 26.844786168620075 0.31039244307598135
1.0656796461021263 13.046552504028115 2399.2212324182174 28.07033366326894 0.31497017261216576
1.0920080167590915 13.05268864083113 2116.4962992780356 29.350651100706767 0.31964169263447
1.1185048377371791 13.05852022879772 1869.2932206965143 30.68843636193251 0.3244112958057105
1.1451326649864486 13.063977974116158 1652.536024092646 32.08714804145272 0.3292874399278715
1.1718941659686697 13.068993150846982 1462.7003237568674 33.548661403150135 0.3342673983291034
1.1987477674329388 13.073447830954402 1295.945076984989 35.07754839215556 0.339364941462204
1.225691758554911 13.077316960095338 1149.5558646581874 36.67586934483941 0.34457706093017637
1.2526848776538642 13.080488057237014 1020.598872632945 38.34860872200863 0.34991778685301467
1.2797247972138177 13.082931542317672 907.0726356368449 40.098056428653216 0.3553840070841873
1.3067663871900368 13.084523274484406 807.0843261013443 41.9296722434402 0.3609902160137624
1.3338017989699362 13.085229781502168 718.8536208113101 43.8468758179242 0.3667379965485325
1.3608081561673584 13.08503499313086 640.9064502307058 45.85445462146567 0.3726356595454818
1.3877377050500928 13.083781594844675 572.0606480413186 47.957689460186565 0.37869287924406475
1.4145923796094892 13.081495164483488 511.0481096528454 50.161273665300016 0.384914993191869
1.441314722418812 13.078048401502313 457.07825139167 52.470542424527515 0.3913095801078734
1.4679067926282858 13.07345597875392 409.19400799298575 54.89185017694588 0.3978880209091411
1.4943146553377342 13.06759840257691 366.702480371127 57.43138283191185 0.4046593699802844
1.5205262985959893 13.060457605020444 328.99053186842025 60.09576405347799 0.4116333912481503
1.5465085193998682 13.051977956355257 295.4219875931305 62.89209466425932 0.4188206165945514
1.5722242794429335 13.042103656516439 265.5837339652318 65.82799582142256 0.4262324090366276
1.5976475932802507 13.030785736505651 239.02711457919855 68.91165634765511 0.4338810312328761
1.6227285974394303 13.017944757273787 215.3385004214201 72.15188464756628 0.4417797199412357
1.6474857854886906 13.003643010307044 194.19053994747017 75.55816569392809 0.4499427671312961
1.6718350305637568 12.987716687488746 175.31218902332648 79.14051022009367 0.45838471730773056
1.6957734071514305 12.970178719459465 158.4385136834477 82.90894594918723 0.46711817051910115
1.7192384662328142 12.950943608155491 143.34685597965998 86.87627834503303 0.47616498878337465
1.7422408964357508 12.930049457295873 129.83602575493308 91.0541735479776 0.4855398858437842
1.7647217214016417 12.907410325151849 117.73465937369545 95.45652074227131 0.49526400574338963
1.7866505377343174 12.882987685353918 106.87134662550555 100.09717683652465 0.5053556376493453
1.8079892604547818 12.856743838091852 97.13220836593995 104.99255794848982 0.5158400777546963
1.8285489764670062 12.828757848772433 88.42808099473116 110.17631770831606 0.5986643193064474
1.8432236625660834 12.798754517141239 82.08599448003262 116.15593445083175 0.933157950331112
1.8505841225643163 12.762246277064577 77.77616465629208 123.19170543221412 1.2572457309051108
1.8520204393981363 12.717668356090622 74.7702781744954 131.3185376472294 1.571329364835673
