M[M_sun], R[km], Lambda[1], P_c[MeV/fm^3], rho_c[fm^-3]
0.24162668629717493 15.618656898711224 2160425.4255784233 3.5677272577965504 0.1711233750220791
0.2536443771341346 15.277279791830347 1723201.2796913362 3.7848267195621843 0.17388826172020846
0.26604075756493867 14.981247256109558 1382989.3880742488 4.011416440443576 0.176666841856084
0.2788161113525714 14.723486928450168 1116479.0501390945 4.247752291589522 0.17945779347525453
0.2919710070867477 14.498380537938065 905804.1593597706 4.4944595286403795 0.1822676841155956
0.3055077862059872 14.301167317319184 738616.5321487521 4.7516937070848115 0.18509221906877873
0.31942364758047154 14.128107357168641 605069.7986892792 5.020137228337759 0.18793801964532353
0.3337234169375761 13.97587685773447 497639.2133265045 5.300013952658465 0.19080170502905075
0.3484037401966949 13.842004535595333 410992.5364396079 5.592052767743171 0.19368957729904007
0.36346699491559037 13.723966528481483 340632.4176275381 5.896420621351307 0.19659669328292181
0.3789207119450369 13.619985102821174 283301.12007404206 6.213981751751167 0.19953073696881762
0.3947513760700627 13.52850151503289 236389.68100757443 6.5449933809204 0.20248788319125863
0.4109789805744362 13.44787167497885 197858.44612374573 6.890158330713798 0.2054718502049542
0.4275862548627855 13.377058574988647 166071.56687388543 7.250181562077524 0.20848570871705707
0.4445835414693035 13.31492050809899 139798.54508691 7.625321864654228 0.21152500233576152
0.46196505329159016 13.260553342623608 117975.43856736079 8.016528633465024 0.21459589884151148
0.47973115613488254 13.213127532715362 99806.68496815833 8.424506762066263 0.21770004304515184
0.49788792873750753 13.171970016357736 84639.2580521252 8.849696978898354 0.2208349006735638
0.5164269005520075 13.13638688882169 71931.7181896512 9.292972889463416 0.22400388360321125
0.5353465143833613 13.105826411975887 61271.63615353162 9.75521926583102 0.22720990964489896
0.5546535216072889 13.079812404168933 52302.866580269 10.237245773831333 0.23045432985949885
0.5743360333008285 13.05783363682468 44726.741161046455 10.739523104588075 0.23373383449285548
0.5943943828850196 13.03951099075646 38324.555054809236 11.263296973659905 0.23705462409394945
0.6148302702528079 13.024501952658197 32899.44756249944 11.809504625893004 0.24041830821265445
0.6356367990378042 13.012444268773363 28058.171910537483 12.379125171705736 0.2438265199880851
0.6568075436234543 13.003009267264476 24368.710598269325 12.9728471160831 0.24727720399028716
0.6783400215315282 12.995972549219957 21026.058560589485 13.591998329551455 0.25077515738289663
0.7002290323626517 12.991053326514232 18170.84166476715 14.237776137929863 0.25432301189143425
0.7224575771192903 12.988040261641459 15727.314435008535 14.91137036631101 0.2579227523988643
0.7450514520856213 12.986656024891474 13632.729535002685 15.613808958337 0.26157425765214226
0.7679728580062943 12.98675460729748 11835.253656942168 16.346361683415395 0.26527945807505093
0.7912191849098987 12.988137286313648 10288.020695796025 17.11064306345255 0.2690430275644549
0.8147945333393385 12.990666673148096 8955.703774850417 17.908108324524584 0.27286739905407953
0.8386772721138693 12.994130561498228 7806.568636402305 18.740117672802345 0.2767536072452473
0.8628578593914131 12.998410235047867 6813.441268421866 19.608025959320205 0.2807022253366124
0.8873395133221685 13.003354318204847 5954.8043525375815 20.51391426830372 0.28471956906980433
0.9120961984077249 13.008856627004189 5210.662764477242 21.459576959932043 0.28880865225434926
0.9371175427023198 13.014746656493214 4564.820500300132 22.446491524944914 0.2929693424670622
0.9624011274175647 13.02094911394494 4004.119650584554 23.476696891329 0.29720554699767926
0.987922495117352 13.02733407549183 3516.2118489241348 24.552609227158065 0.3015233139684365
1.013664691784303 13.03380126719596 3091.7341894406163 25.67616271803382 0.30592421384159313
1.0396295924992724 13.04024729315109 2721.1471290411655 26.849335180541406 0.31040962842388164
1.0657815822314525 13.046576005013172 2397.876420013843 28.07521583498072 0.3149882338882586
1.0921133428987178 13.052705702063669 2115.5447768781996 29.35584912919959 0.3196604023454384
1.118607357193071 13.0585551835579 1868.2455381832324 30.694012304947428 0.3244309653060077
1.1452438395253972 13.064002827674033 1651.8992632118163 32.09308370059347 0.3293078342680402
1.1720066161390383 13.069015854419703 1461.7217283100672 33.55502640120426 0.33428884902880457
1.1988647443794935 13.073472975608086 1295.2283853935003 35.084372769673784 0.3393875078285638
1.2258107110327336 13.077335632384349 1148.9175183832 36.68313329841319 0.34460049331996956
1.2528073894426235 13.080492832968044 1015.5746398241403 38.35637346747241 0.34994232353760596
1.2798507569053388 13.082932868545054 906.606997368003 40.10634638177738 0.3554096534296591
1.306893992758252 13.084524027356052 806.6407045867512 41.93849931311174 0.36101690158267463
1.3339285399215266 13.085244727763078 718.4676484028963 43.856338967108236 0.3667661259218878
1.3609396059416006 13.085035348201652 640.5405722078658 45.8645340222247 0.37266496907370594
1.38787127719928 13.083772421807055 571.7181858796833 47.96842816321646 0.3787234450594166
1.414728524818634 13.081479379062255 510.73981514424923 50.17278941989302 0.384947261605301
1.4414526472235996 13.078026748601662 456.81661053104835 52.48281695026608 0.39134328135668417
1.4680469465549402 13.073429033713301 408.95718434206884 54.90493782221611 0.3979232504964469
1.4944565922449515 13.06756244666269 366.4802208835376 57.4453423472995 0.4046962307919245
1.5206690854716542 13.06041421150347 328.79484860787363 60.110658985900606 0.41167199415895206
1.5466526006687191 13.051927947124662 295.24742360809427 62.90799379042469 0.41886108113467885
1.5723685272438117 13.042044129607302 265.4263863605837 65.84497362499208 0.4262748641244581
1.5977937713455794 13.0307158609358 238.89053812045302 68.92979354502573 0.4339256159816131
1.6228800553261495 13.017892436438723 215.2009848222933 72.17126876778501 0.44182658454731605
1.647632069702217 13.003550807375715 194.06434820191498 75.57889171894085 0.4499920738536296
1.6719808002618914 12.987619806366482 175.1982398313641 79.16257307343022 0.4584361896921493
1.6959182618625703 12.970066128480362 158.34554985373734 82.93256087913394 0.46717243755934085
1.7193986651841935 12.950852477140899 143.25720669866178 86.90156690949425 0.4762222549396689
1.742381214688035 12.92991462672911 129.75990434036942 91.08114627333394 0.4855998902293988
1.764862715779706 12.907261252479808 117.66076616643201 95.48543745424683 0.49532745546625195
1.7867900847251286 12.88282561901638 106.81211609941178 100.12806271334517 0.5054222880315782
1.808127820893142 12.856564145799753 97.07108865603972 105.02557314197186 0.515910185587258
1.8288374843296866 12.82842743076943 88.31710124856009 110.19451197023346 0.5268136886130553
1.848917267355336 12.798459872597045 80.45334975639761 115.65254658920068 0.5381562989243885
1.868293039498208 12.766519978904162 73.37814402055639 121.41982346793601 0.5499671123135703
1.886972174249015 12.732697402846153 66.99948989547488 127.51778095754362 0.5622759813873858
1.904895126837789 12.696880078621088 61.247326581754905 133.96888166393882 0.5751122768449141
1.9220348284964013 12.659061466648529 56.06531003508534 140.79882286231697 0.5885123370246441
1.9383490597880604 12.619171886632676 51.38366077689212 148.03527774192358 0.6025144037099985
1.9538455194765598 12.577326138571266 47.15841982088616 155.7067237714042 0.6171541595187211
1.968460039539704 12.533392786162691 43.331803184833326 163.84683518150712 0.6324792899541009
1.9821750457471445 12.48739234026536 39.8746719519217 172.4894265304517 0.6485314843823812
1.9949643799969452 12.43931574597103 36.740972789921315 181.67372516231953 0.6653636883987236
2.0068005843843886 12.38915234043072 33.89908058254245 191.441774600757 0.683030444210171
2.01764634017289 12.336876086342988 31.323610699075108 201.83961594771662 0.7015909943487154
2.0274819563359436 12.282490291833495 28.98902199508871 212.9171633110193 0.7211078833036246
2.036290459900862 12.226023498627567 26.86545210728243 224.7299949667976 0.7416517247868212
2.0440349965132496 12.16742593011328 24.939043678166136 237.33919793268495 0.7632993812793911
2.0506948226088153 12.10671681793246 23.18420531167223 250.81169154929015 0.7861336001776089
2.0562661790857226 12.04396907261211 21.590759080830207 265.2206588981096 0.8102427865731127
2.060712285557733 11.979117539183658 20.139299239387462 280.647661056707 0.8357260186692107
2.064017500562744 11.912221043172607 18.819246636212835 297.1826294756525 0.8626908882250822
2.066176970562499 11.843317567650251 17.616044303636215 314.9259149245669 0.8912577554111359
2.067169068396566 11.77242285533994 16.52133824200378 333.9868744611515 0.9215522726663302
