M[M_sun], R[km], Lambda[1], P_c[MeV/fm^3], rho_c[fm^-3]
0.24162668629717493 15.618656898711224 2160425.4255784233 3.5677272577965504 0.1711233750220791
0.2536450120196609 15.277269065696728 1723268.151944676 3.784838858978118 0.17388841303217184
0.26604178114096155 14.981222614386049 1382994.975247186 4.011441960073032 0.17666715024574534
0.27881788934790047 14.723463116931033 1116425.6316387735 4.247792054960215 0.17945825467043244
0.2919735633221738 14.498364875136149 905843.7163009763 4.494514579337687 0.18226829711788672
0.3055108609953705 14.301151540696289 738592.974359592 4.751765914524315 0.18509299904693535
0.31942806215107794 14.128060786782179 605035.1441366784 5.0202271245889 0.18793895235362587
0.33372602628070924 13.975904861070811 497651.64204162674 5.30012390466314 0.19080281206329447
0.3484102871352813 13.841949108048693 410958.3643892202 5.592183050199901 0.19369083781764843
0.3634743650879599 13.723905723598733 340619.1027271306 5.896574161494621 0.19659813536444037
0.3789287233557734 13.619940766192826 283248.12752733723 6.214160407882113 0.19953236609761585
0.39476324965173293 13.528367070351395 236374.0283932309 6.545196967722922 0.20248966837248444
0.4109898488714148 13.44779804558979 197835.2567312299 6.89039077875246 0.2054738298299945
0.4276002906789986 13.376976951716697 166050.0671547514 7.250445052909183 0.20848788850918046
0.44459633140326044 13.314863960047408 139774.26699283672 7.625615670178675 0.21152734121665245
0.4619796541937079 13.26051941258234 117954.33850493883 8.01685787878779 0.2145984458202665
0.4797459991852107 13.213103497524678 99790.59589292416 8.424874014941173 0.21770280427336106
0.4979058567102565 13.171926601792581 84622.58989455856 8.850100885339788 0.22083782512877573
0.5164458192696544 13.136348214865905 71925.16582335152 9.293419986506352 0.2240070311942668
0.5353663084924575 13.105803876264227 61262.51991860363 9.755712585326263 0.22721328717129263
0.5546741663936972 13.079792259760037 52293.389875314104 10.237787649959946 0.2304579330765865
0.574359462850248 13.057815548452687 44717.4658834947 10.740112942966611 0.23373762143795476
0.5944186641184516 13.039493201859596 38319.49451020564 11.263942763503348 0.23705865900057768
0.6148571271709359 13.024480932582495 32615.339774170854 11.810210182753458 0.24042259917556164
0.6356640650393237 13.012445451658746 28284.33085097559 12.379894549200628 0.24383107552932246
0.6568371088928716 13.00299758968452 24366.271479941443 12.97367678107403 0.24728194601515516
0.6783704437167897 12.995971448033945 21021.81096084672 13.592900064620054 0.25078017800216934
0.7002613208689498 12.991050221744523 18166.98903965289 14.23875477872422 0.25432832106550624
0.7224980652085505 12.98799909841053 15724.374729026187 14.912431059207623 0.2579283606820399
0.7450880000808879 12.986653918068818 13629.916383846094 15.61494683030518 0.2615800736988633
0.7680112614342504 12.986758846007959 11832.499181582742 16.347592145224812 0.2652855916185604
0.7912582705402796 12.988150340063797 10286.837399465541 17.111972291440154 0.2690494911500443
0.8148358803212591 12.990667673397832 8953.423071883308 17.90954290454849 0.2728742060337156
0.8387204420168178 12.994142810787507 7805.019413834454 18.741651241587395 0.2767606532003248
0.8629036135507863 12.998417410821315 6811.777384333923 19.60967845919406 0.28070963906136925
0.8873871523378419 13.00336660661806 5953.210797836044 20.515693653894488 0.2847273666133612
0.9121461081710649 13.008855496973876 5209.325808076035 21.46149173063175 0.28881685074799274
0.9371677145193231 13.014762767859057 4563.553558881909 22.448533703961516 0.29297782451605675
0.9624538499355838 13.020967296102597 4003.0149625944646 23.478892109563283 0.2972144624311916
0.9879766932245655 13.027349554886559 3515.1634715507207 24.554967818862643 0.30153268353360274
1.0137212811980827 13.033805688246684 3090.6189062542726 25.67867555268293 0.3059339113544487
1.039688205885988 13.040269940664611 2720.3624658067993 26.852032981810844 0.3104198202312857
1.065841110190332 13.046594721848843 2397.1867052531675 28.078111233116875 0.31499894522497984
1.0921765368717038 13.052726567641754 2114.7821091378723 29.358931861471117 0.31967149828880864
1.1186772087874952 13.058554924227058 1867.5928905026158 30.697319180743428 0.32444263052465827
1.1453103947091985 13.064020969261358 1651.2576846498225 32.096603925916 0.3293199294155202
1.1720759916670438 13.069019719551672 1461.4304584351223 33.558801273275215 0.33430157073688926
1.1989334289624234 13.073480529592494 1294.8962928120611 35.08842010782248 0.3394008912785857
1.2258823743292218 13.077342765075521 1143.422741349904 36.68744135634022 0.34461439044796915
1.252880705318759 13.080502959273854 1019.7268745671042 38.360959730707386 0.34995676524086367
1.279924322659076 13.082946170724526 906.2851900928904 40.111262985231434 0.3554248637582148
1.306969954995294 13.084522332642738 806.4404679177858 41.94373449509596 0.3610327283309395
1.334008226581861 13.085240389843754 718.2783600281974 43.86195143104714 0.36678280906726685
1.3610183554577724 13.085032786263813 640.3226366619433 45.870512006726216 0.37268235224058854
1.3879520552713775 13.083766872256199 571.553189750144 47.974797205604446 0.3787415734100244
1.4148030699330987 13.081457772801024 510.5916950211725 50.17961936916629 0.3849663998758407
1.4415340495413445 13.078016651930604 456.6728159481022 52.490096962670975 0.3913632695431631
1.4681302413634285 13.073411200300317 408.82412271639686 54.912700137572685 0.3979441452533648
1.4945407590217352 13.067542345535745 366.3573709218795 57.453621817128464 0.40471809315385976
1.520753083859329 13.060389894576645 328.68700448862523 60.11949330727963 0.41169488990030306
1.5467371566461958 13.05189696362828 295.1438786349993 62.917423763181326 0.41888508116506057
1.5724542965029145 13.042010137761986 265.3343048505693 65.85504343483241 0.42630004492357954
1.5978683207879103 13.030668854100616 238.80313690343993 68.94055107551486 0.4339520600779136
1.6229672555685881 13.017847253649286 215.13239474070247 72.18276594445202 0.44185438104514285
1.6477189153363674 13.003498618070685 193.98859474906882 75.59118488918858 0.4500213190143215
1.672066934658367 12.987557947020226 175.13974664897447 79.17565922416816 0.4584667195321056
1.6960044426508936 12.9699972482876 158.2898662185969 82.94656770755329 0.467204625210254
1.719483976141855 12.950778247200764 143.20772460750842 86.91656653107022 0.47625622170258425
1.742464629231085 12.929824963975793 129.7188761237822 91.09714493109536 0.4856354813540237
1.7649468208507302 12.907171228576795 117.61156127264665 95.50258929595395 0.4953650904367775
1.786873246187866 12.88272942858161 106.76756098035563 100.14638267442848 0.505461821712807
1.8082099431708252 12.856458099078868 97.03653191365844 105.04515623609461 0.5159517703286753
1.8289235000558182 12.828324372374203 88.28599126697121 110.21546183520348 0.526857489207881
1.8489965619046658 12.79833344447784 80.42311220391043 115.67506197389584 0.5382028079397068
1.8683692327271275 12.766386674193063 73.34851723445792 121.44394534279738 0.5500162156111071
1.8870451656372282 12.732557104378085 66.9710481286908 127.54355304900473 0.562327562187972
1.9049673609438529 12.696727020193624 61.22542323903796 133.9965405517834 0.5751668840775277
1.9221059105084393 12.658898381744715 56.0454715117789 140.82853076239297 0.5885702193113357
1.9384168953056284 12.618997197574846 51.3637056787681 148.0672125920276 0.6025758319830316
1.9539105022226395 12.57713799230559 47.140419507393005 155.7409757994167 0.6172190705404812
1.9685226469920825 12.533199455984661 43.31906678555753 163.8836119904084 0.632547989338765
1.9822341137738522 12.487184356111138 39.858681284775685 172.52906681228615 0.6486046758286097
1.995018339038822 12.439093012690611 36.725996311703845 181.71637263882582 0.6654413713685206
2.006851012220554 12.388919286045896 33.884948280514166 191.48770627121775 0.6831130161250258
2.01769375737965 12.336630396252259 31.312659273636754 201.88913737798006 0.7016788900025468
2.0275255930542153 12.282236014741619 28.976454645845482 212.97048703232016 0.7212011699637836
2.0363305079644016 12.225750244086823 26.856733292629954 224.78761464196793 0.741751321767083
2.0440693348645187 12.167143276718734 24.92982519962252 237.4013943190306 0.7634054318315678
2.0507233861899588 12.106419492703155 23.17621247047278 250.87891408984484 0.7862467101089363
2.0562907430994453 12.043656765953724 21.58368376460194 265.2935024463289 0.8103639352014577
2.060731585843623 11.978791657682045 20.13259358932898 280.72648708192145 0.8358553116971591
2.0640310231318724 11.911880967235142 18.812671395976697 297.26815061747715 0.8628294477986117
2.0661853433983097 11.842964147110001 17.610680950968923 315.01881807024057 0.8914064750747172
2.0671709650803556 11.772058812136258 16.51560049085543 334.08777247712953 0.9217116330228909
