M[M_sun], R[km], Lambda[1], P_c[MeV/fm^3], rho_c[fm^-3]
0.24162668629717493 15.618656898711224 2160425.4255784233 3.5677272577965504 0.1711233750220791
0.25364504148105954 15.277268330296645 1723277.8491850472 3.7848394055368755 0.17388841984476308
0.2660418132473653 14.981218454598862 1382863.1087765973 4.011443109058325 0.1766671641305545
0.2788178556007906 14.723455478135353 1116398.8595822689 4.247793845253938 0.17945827543514173
0.29197374313214297 14.49833514215 905790.5988197684 4.494517057928846 0.1822683247175745
0.30551106717634857 14.301179954599194 738595.9486094585 4.751769165584451 0.18509303416458955
0.3194281365093589 14.128076366424366 605038.5380204326 5.020231172076918 0.18793899434787623
0.33372612904757976 13.975933459751381 497639.9427777338 5.300128855152186 0.1908028619065048
0.3484105810706989 13.841946626989484 410956.84177142114 5.592188916061167 0.1936908945714698
0.36347554793501957 13.723887527690291 340614.6892402245 5.896581074529188 0.19659820029312397
0.37892997207061885 13.61994871291986 283261.4449697785 6.214168451763235 0.19953243944812624
0.3947638288167862 13.528374332824553 236376.28924583268 6.545206134109983 0.2024897487493158
0.41099035120815247 13.447795850727918 197837.3474087237 6.890401244623282 0.20547391896174225
0.4276015175564601 13.37697494231598 166049.9770240888 7.250456916492935 0.20848798665356846
0.4445968181277333 13.31486355046985 139776.93000435887 7.6256288986957825 0.21152744652415453
0.4619803519753713 13.260504562270214 117960.56842037365 8.016872703003061 0.2145985604975565
0.47974693301844024 13.213111540847677 99791.24246279162 8.424890550473947 0.21770292859745125
0.4979059272229036 13.171932855333063 84624.24505172693 8.850119071229347 0.22083795680238635
0.5164461134039562 13.136363293807138 71924.0301069869 9.293440117093605 0.22400717291485603
0.5353674287842638 13.105794930671168 61261.29078583174 9.755734797128607 0.22721343924504886
0.5546761436415057 13.07977525417134 52291.84213187448 10.23781185012781 0.23045809276711912
0.5743605038071493 13.05781141570336 44717.226062763104 10.740139500648862 0.23373779194650135
0.5944199322084704 13.039491324178488 38318.98634661432 11.263971840478035 0.23705884067404173
0.6148588262770522 13.024478724779586 32893.44874490367 11.810241950827827 0.24042279237845768
0.6356652398211091 13.012421980275152 28283.995823541838 12.379929190901947 0.2438312806454065
0.6568380489183041 13.003013063960816 24363.22190039968 12.973714137319886 0.24728215952813784
0.678371877453908 12.99596588006351 21021.425648755892 13.592940665951831 0.2507804040595069
0.7002625142213175 12.991057686160739 18166.53988685171 14.238798842884115 0.2543285601157242
0.7224982722461196 12.988007505232282 15724.000515020754 14.912478817930012 0.25792861320040794
0.7450892701586522 12.986656782702255 13629.45087356809 15.614998064173902 0.26158033557241545
0.7680132263242536 12.986752376572056 11832.819045115011 16.347647548157255 0.26528586778828306
0.7912604837682976 12.988143021302271 10286.617176596637 17.11203214155033 0.2690497821808631
0.8148377527349343 12.990669753177484 8953.300615685062 17.909607498391377 0.2728745125268814
0.8387223524056585 12.99413889476235 7804.974337742325 18.7417202926415 0.2767609704541904
0.8629052147923426 12.99842244935996 6811.573219479082 19.609752865434064 0.2807099728752426
0.8873881191118698 13.003375722769258 5953.076863812856 20.51577377351232 0.28472771770994926
0.912148834628786 13.00885865342762 5178.496944601983 21.46157794635067 0.2888172198987342
0.9371705391381134 13.014758875942434 4563.43951265299 22.448625656601997 0.2929782064349754
0.9624554425418175 13.020969072733292 4002.9541827201565 23.47899095326166 0.29721486386482
0.987979061082038 13.027357159521323 3515.261838828679 24.555074018968327 0.3015331054162071
1.0137241140781592 13.033818745150134 3090.629759344384 25.67878869806164 0.30593434800425573
1.0396908340526398 13.040266925028163 2720.3342977619113 26.8521544559341 0.31042027913864956
1.0658445344742573 13.046595981239403 2397.211909790528 28.07824160472635 0.3149994275262532
1.0921805192030014 13.052725486902773 2114.7797654866145 29.359070668446023 0.3196719979086904
1.11867981265652 13.058556311434355 1867.5850452699 30.69746808060673 0.3244431557785746
1.1453117817612979 13.064013040471316 1651.1866969267896 32.096762432620935 0.32932047402894604
1.172078689615798 13.069024415245961 1461.4319720791511 33.558971246442816 0.3343021435639891
1.1989363541220401 13.07347811359694 1294.833351552212 35.08860234987015 0.3394014939036314
1.2258856652548473 13.07734417060664 1148.5487136530628 36.687635338334196 0.34461501620385393
1.252882728698132 13.08050240403178 1019.6873102246757 38.361166240030485 0.3499574155189248
1.2799276772231654 13.08293984500947 906.3026280633159 40.11148436955707 0.35542554864735865
1.3069723199580978 13.084529365948992 806.3854095978604 41.943970224791514 0.3610334409775221
1.3340127232077066 13.085238643245289 718.2750959771752 43.86220414958835 0.3667835602774677
1.361021795685644 13.085030464586508 640.3304150010782 45.87078118449004 0.37268313497296074
1.3879550668793719 13.083765027813312 571.5367091460378 47.97508399256739 0.3787423896982978
1.414806511178604 13.081461087814468 510.5783002179256 50.1799269107323 0.38496726164120043
1.4415383408514093 13.07801578458368 456.6579073426355 52.49042477053328 0.39136416958073394
1.4681340070676152 13.073412275332455 408.80921980718017 54.91304966354348 0.3979450861144173
1.494544999539127 13.06754154065089 366.3572292801174 57.45399463063411 0.40471907758691683
1.5207568628158274 13.06038755677094 328.68625645217014 60.11989110589241 0.41169592086734136
1.5467410321511172 13.051895335798626 295.1460687117176 62.91784838420263 0.41888616185931865
1.5724581499224266 13.042007521788591 265.3255476415489 65.85549686804382 0.4263011787891433
1.5978723130232966 13.030667821669843 238.79129999519077 68.94103547722807 0.43395325083127145
1.622969867717127 13.01784569349249 215.12935191505946 72.18328365300674 0.44185563269892997
1.6477227751387076 13.003496062532756 193.9860268298223 75.59173844206221 0.4500226359034896
1.6720716994260725 12.987552765408426 175.14346004374585 79.17624848564667 0.4584680942723934
1.6960079405799506 12.969992300362076 158.2831473979416 82.94719842823476 0.46720607460454305
1.7194864667748457 12.950776587205276 143.20173801310807 86.91724195854731 0.47625775121350317
1.7424691296010626 12.92982254485783 129.7150608953261 91.09786534647961 0.4856370840130783
1.7649481108449727 12.907167994747088 117.60522458636001 95.50336164107772 0.4953667851344354
1.7868767272935024 12.88272500059256 106.76501750170095 100.14720762185074 0.5054636019135548
1.808213152349426 12.856453438395638 97.03676968535135 105.04603806462181 0.5159536428934013
1.8289269343419279 12.828318162973682 88.2847723679775 110.2164052120383 0.526859461557897
1.8489994656873459 12.798328419279956 80.42074980059286 115.6760758495708 0.5382049022569896
1.8683731608665868 12.766379792645694 73.34721950414097 121.44503156234138 0.5500184267560436
1.887048498437924 12.732549701456314 66.96987965138867 127.54471358152286 0.5623298849019234
1.9049703596250127 12.69672056454091 61.223628222729104 133.9977860515987 0.5751693430808874
1.9221090420330798 12.658891045760443 56.04402991783796 140.82986853486491 0.5885728258008401
1.9384198302894764 12.61898809217781 51.36481077300951 148.0686506505904 0.602578598160225
1.9539130397101496 12.57713091951009 47.13980446490381 155.74251820739389 0.6172219935579951
1.9685259701865625 12.533190190193316 43.318474021696396 163.88526809723993 0.6325510829600896
1.9822365280363574 12.487175829907825 39.85754075111423 172.53085187126817 0.6486079717448456
1.995020619823672 12.439083142421525 36.72483270278797 181.71829312246692 0.6654448695561018
2.00685337780408 12.388908707311336 33.884696721867115 191.48977465443528 0.6831167344823426
2.0176959537725185 12.33661889582639 31.311619240961477 201.89136742228843 0.7016828481112184
2.027527796289584 12.282223980015775 28.977112329591552 212.9728883091753 0.7212053708539778
2.036331822267982 12.225738355961264 26.855427626104824 224.7902093844225 0.7417558068411878
2.0440708765903897 12.16713043779292 24.92997262429998 237.40419517132145 0.7634102075420145
2.0507250061996123 12.106405141540582 23.175784709166468 250.88194129354022 0.7862518037397226
2.056291890978475 12.043642397937258 21.583284951710805 265.29677845726087 0.8103693767340172
2.06073221094386 11.978777732579898 20.132684396897577 280.7300368493502 0.8358611341419433
2.064032063317286 11.911865540640433 18.813114469743667 297.27200190236357 0.8628356875702052
2.0661861986406707 11.842948065565137 17.610360689006956 315.0230018087282 0.8914131724171578
2.067170964068751 11.772042450615983 16.515952024376197 334.092316271461 0.9217188095830817
