M[M_sun], R[km], Lambda[1], P_c[MeV/fm^3], rho_c[fm^-3]
0.24162668629717493 15.618656898711224 2160425.4255784233 3.5677272577965504 0.1711233750220791
0.2536445561170335 15.277259287723455 1723186.4838071235 3.784829272593013 0.17388829354250612
0.2660403314371417 14.981267635557545 1382915.6872254822 4.011421807446737 0.17666690671314983
0.27881685712269094 14.723474564965375 1116404.0475457294 4.247760654162567 0.17945789046849972
0.29197133788955687 14.49837554631875 905868.6220892187 4.49447110624788 0.18226781303494213
0.3055079182295683 14.301173326576752 738582.4542085143 4.751708892868103 0.1850923831042208
0.31942454805707593 14.128112535450853 605099.6350172615 5.020156134184367 0.18793821580077905
0.3337224622870272 13.975920928977517 497670.02086294297 5.300037076339733 0.190801937846152
0.34840511277078595 13.841992953805235 410985.3234280538 5.592080167019036 0.19368984239457135
0.36346917698029346 13.723931186266789 340653.4306256886 5.89645291182215 0.19659699656185736
0.3789228185464998 13.619969974151578 283286.36084180564 6.214019324213362 0.19953107958443264
0.39475544212434016 13.528426436276884 236393.79824265436 6.54503619638981 0.2024882586250845
0.41098113428477206 13.44783532813998 197849.46102442767 6.890207215788566 0.20547226653076475
0.4275901263852617 13.377021365280939 166062.490781211 7.250236975531311 0.208486167138359
0.4445859064067411 13.314903727121957 139787.41636399314 7.625383653353707 0.21152549421353936
0.46196817610900104 13.260550938819557 117973.92004048136 8.016597875215046 0.21459643448242746
0.47973332990527706 13.21313474377893 99805.8809278644 8.424583996853373 0.21770062374277865
0.4978914239434033 13.17196186803574 84632.77519247454 8.849781921965487 0.22083551569766321
0.5164307996611825 13.136387769729042 71931.54052171795 9.293066915535418 0.22400454555262
0.535350739313927 13.105821800849842 61270.56239007967 9.755323012488493 0.22721061994943234
0.5546581616220022 13.07980510175679 52301.229593618365 10.237359917399605 0.23045509001113598
0.5743415099059146 13.057823147066255 44725.63587009327 10.739647149123437 0.2337346308971967
0.5943991964079023 13.039521756458747 38321.132659893476 11.26343278472863 0.23705547264396454
0.6148376381451219 13.024492274705022 32897.78311330498 11.80965300587802 0.2404192106105299
0.6356421294212165 13.012425362737112 28287.531107750296 12.379286973051792 0.24382747802586124
0.6568138149820214 13.003029147673427 24368.466688931218 12.973021595767836 0.24727820124461633
0.6783462774495054 12.995985997303587 21024.995200289064 13.592187965388863 0.25077621322443283
0.7002351895384629 12.991062495412574 18169.552462183477 14.237981946814733 0.25432412841467916
0.7224707674005482 12.98800320189225 15727.885446204351 14.911593430479678 0.2579239318232087
0.7450598596454686 12.986638331223986 13632.31764825704 15.614048253000785 0.2615754807677331
0.7679808909628598 12.986768843233936 11834.678211126393 16.34662044935041 0.2652807479583362
0.7912265072791864 12.988146152874616 10287.30996879136 17.110922599479984 0.26904438685349746
0.8148017827471554 12.990673754174251 8954.916960395676 17.908410015581186 0.2728688305565712
0.8386859573275517 12.994134546095648 7806.6128224620215 18.740440180720455 0.2767550890022609
0.8628677955827577 12.998410345916044 6813.171788203338 19.60837347779552 0.2807037844328427
0.88734987817257 13.003359351086775 5954.442158839325 20.51428847010237 0.28472120888010694
0.9121062102588081 13.008856623395408 5210.339220149456 21.45997963237419 0.2888103763811378
0.9371276278793735 13.014746687230433 4564.531807162573 22.446920990566756 0.2929711262227547
0.9624122670691594 13.02095209408255 4003.972096219303 23.47715854003671 0.29720742189025046
0.9879338735010222 13.027341331376485 3515.9578711154263 24.553105232109207 0.3015252843606428
1.0136773099665948 13.03379420290812 3091.5869586169288 25.676691159158263 0.3059262531976644
1.039642385887164 13.040254245964407 2720.9604173105736 26.849902518658993 0.31041177172512957
1.065794014220848 13.046579618720546 2397.7388087118175 28.075824726051373 0.31499048644109506
1.0921268799492687 13.052715625945375 2115.2526897712755 29.356497415077754 0.31966273577655024
1.118625968358275 13.058542949423389 1868.2990887734838 30.694707726152554 0.32443341844937096
1.145257461837813 13.06399971514376 1651.7948547098945 32.09382398727232 0.3293103778201535
1.1720219529096507 13.069013798849758 1461.8073188553778 33.55582023756736 0.3342915243391962
1.1988793229343127 13.073467314298199 1295.1831430953964 35.08522390283369 0.3393903222951809
1.2258258231258439 13.077341847215365 1148.8116034960601 36.68403925827858 0.34460341580625575
1.252822428647029 13.080501762728764 1019.9759552848302 38.35733793097495 0.3499453605407157
1.2798655326940174 13.082942062169087 906.537094860437 40.107380312033364 0.35541285206445733
1.3069100228461394 13.08452357822033 806.6045854899241 41.939600236813696 0.36102022984181487
1.333948051965953 13.085236590449387 718.4609756151325 43.857519228562204 0.3667696342693153
1.3609572426981191 13.085031046684316 640.4998582469798 45.86579114819905 0.3726686246252717
1.38788911032893 13.083773928884124 571.6888488094378 47.96976752374861 0.3787272573118461
1.414737911822708 13.081462025891684 510.74281294088354 50.17422570289804 0.38495128622856273
1.4414696413525216 13.078028037726604 456.79121157620034 52.48434787549604 0.3913474847037775
1.4680645256126974 13.073425592566007 408.93117828092244 54.906570169072964 0.39792764448061435
1.4944742707456091 13.067558656285183 366.44261580968646 57.447083444356615 0.40470082824741543
1.5206869211650198 13.060410392005748 328.7674760491062 60.112516760075344 0.4116768089166644
1.5466702829870214 13.051920842484355 295.2225845085743 62.9099768210565 0.4188661281052947
1.5723864777354644 13.042037133471577 265.4080025018514 65.84709120337523 0.42628015938988373
1.597811013058912 13.030706097015825 238.87148247428044 68.932055740007 0.43393117689561617
1.622898211427369 13.017882322884422 215.18496482484775 72.17368649811617 0.4418324298463701
1.6476500720715808 13.003541239419015 194.05585626446216 75.5814768331602 0.4499982237790946
1.6719988162574335 12.987604299258912 175.19778126760778 79.16532493804863 0.45844260976082063
1.6959360193832793 12.970049852349128 158.33200515288942 82.93550634571763 0.4671792062329716
1.7194165765771638 12.950836571611207 143.24869868028946 86.90472114210952 0.4762293977246305
1.7423956689428959 12.929886067413037 129.76189028117136 91.08451058484702 0.4856073745841568
1.7648801345702068 12.90724224141747 117.65353238913515 95.48904425783077 0.49533536959867525
1.786807271666312 12.882802187893653 106.80264316467712 100.13191514965631 0.5054306014220044
1.808144930735315 12.85654201480814 97.06494464923628 105.02969118986753 0.5159189302705962
1.8288544353311333 12.828403216425466 88.31034605100604 110.1989174219301 0.5268228992406687
1.848933975779909 12.79843294319439 80.443864508019 115.65728123576905 0.5381660790703978
1.8683098763828914 12.766491781299415 73.3722814898051 121.4248959244355 0.5499774379761554
1.886987054355566 12.732668044688982 66.99328659801591 127.52320041867276 0.5622868280097566
1.9049102493586885 12.69684848508013 61.24254432120018 133.97469787515334 0.5751237598517691
1.9220503418376198 12.659027782137276 56.06200650721504 140.80506993261616 0.5885245086932277
1.9383634140388528 12.61913600053967 51.381110898480756 148.04199308601082 0.6025273210084596
1.9538589542581826 12.57728783091764 47.154452952821366 155.71392636167772 0.617167809148279
1.968473364352889 12.533352708144065 43.329762781661216 163.85456867020358 0.6324937361752556
1.9821871928932262 12.487347506332382 39.87007318411656 172.4977621327951 0.6485468751607123
1.9949764482966095 12.439267595139151 36.737441659323025 181.68269309847128 0.6653800236187716
2.006810656076357 12.389103725428663 33.89534297090979 191.45143311405562 0.6830478074353644
2.0176561969699005 12.336824934108174 31.321834858206667 201.85002928778906 0.7016094770001527
2.0274906533713666 12.28243603817119 28.98533360206609 212.92837616610535 0.7211274995227539
2.0362993899651487 12.225965784167444 26.863802009859217 224.7421111353204 0.7416726678725579
2.0440429907909814 12.167365648583687 24.937793521962334 237.35227644790348 0.7633216813492516
2.0507004609402735 12.10665478559221 23.183108547487308 250.82582691175995 0.7861573846086205
2.0562713883976023 12.043902702766006 21.589027563811182 265.23598505312003 0.8102682901854809
2.060715942290707 11.979049234309706 20.137870555973844 280.6642362641814 0.8357532058673145
2.064020226514339 11.912150075405009 18.81786013940542 297.2006124453872 0.8627200238582611
2.066179111129027 11.843243022111155 17.615148185362482 314.94545007966127 0.8912890273521727
2.067170172209419 11.772345482924717 16.520744549389722 334.00809066178624 0.9215857819604947
