M[M_sun], R[km], Lambda[1], P_c[MeV/fm^3], rho_c[fm^-3]
0.24162668629717493 15.618656898711224 2160425.4255784233 3.5677272577965504 0.1711233750220791
0.25364217087379853 15.277342420110099 1723199.6107331906 3.784805385730595 0.17388799580428949
0.26603823154758116 14.98127768038958 1383079.1696752557 4.01137159248183 0.17666629989493376
0.278812081074921 14.72359931983147 1116452.0306953269 4.247682412231636 0.179456982980009
0.2919651198895461 14.498492411707169 905977.7930426883 4.4943627842096925 0.1822666068439067
0.3054998171825695 14.301297951314096 738677.7328246856 4.7515668126741994 0.18509084836696252
0.319415553514302 14.128201000346502 605121.8541556424 5.019979249225294 0.18793638055105735
0.3337119811191097 13.976057443224146 497721.60450317786 5.299820729710046 0.190799759594575
0.3483926296742284 13.842090307727359 411055.21645340166 5.591823818544394 0.19368736215256016
0.3634532920564052 13.724058156864558 340677.1199367267 5.896150802274242 0.1965941590850502
0.3789058609618351 13.620066010840926 279427.9093651655 6.213667797638922 0.1995278740853393
0.3947361708911484 13.528534804904707 236441.16627913516 6.544635617753071 0.20248474609159553
0.41095981995090425 13.44795817527002 197897.54512541534 6.889749851952699 0.20546837142841323
0.42756643217127693 13.377115319707574 166108.47348812898 7.249718534662325 0.20848187820991487
0.44456030268468055 13.31497747822019 139826.06218526035 7.624805568358425 0.2115208922852695
0.4619401026903941 13.260617488122284 117999.42946155647 8.015950062935328 0.2145914231307101
0.47970265944653706 13.213210315610187 99831.16263598403 8.423861405769108 0.21769519086798877
0.49785708666000517 13.172041430526843 84658.26066472658 8.848987216373162 0.2208297616896232
0.5163942496566308 13.136442834816718 71954.66321062959 9.292187234663471 0.22399835254443978
0.5353114971818181 13.105876883291462 61290.84722621248 9.754352391903579 0.2272039745671286
0.5546152703500339 13.079851349675291 52310.464411963425 10.236292030245721 0.23044797829927524
0.5742961530085464 13.057870241679707 44337.89621995135 10.738486635362838 0.23372718003937148
0.5943517300035561 13.039558458611513 38337.91555183468 11.262162191985196 0.23704753395751052
0.6147855153982625 13.024542279504493 32909.8853390871 11.808264828142438 0.24041076817377413
0.6355852877720817 13.01244533514936 28301.220557070723 12.377773236035798 0.24381851507666574
0.6567557408533913 13.00303297146091 24377.138979377243 12.971389250788338 0.24726887143008808
0.6782859460271099 12.995988536156569 21034.090021968877 13.590413832898742 0.2507663353300464
0.7001714475015457 12.991057052420393 18041.045041979036 14.236056514264996 0.2543136828491261
0.7224034183477975 12.98800819539363 15734.679749894645 14.909506574124611 0.25791289782701304
0.7449881869362937 12.986645892373538 13638.369998117858 15.611809559913501 0.26156403805365475
0.7679058283631093 12.986755988098285 11838.813518886485 16.344199603145853 0.26526868064717574
0.7911486076922988 12.988123229667544 10293.366313528768 17.10830745051162 0.26903167026962804
0.8147204712413809 12.990660392644816 8959.381436191983 17.905587608699236 0.2728554384377281
0.8386005488174636 12.994113846866478 7809.5071824161905 18.73742303436914 0.2767412267758901
0.8627791714195303 12.998394112260925 6817.010391098353 19.605122362074066 0.28068919872697196
0.8872512872970924 13.00333929627257 5957.185881626376 20.510787737591656 0.2847058681274478
0.9120113727572672 13.008821267093749 5213.094706132284 21.4562125641621 0.2887942468859476
0.93702665982929 13.014722271949198 4566.847461678575 22.442903278782744 0.29295443893534207
0.9623025370004559 13.020921203252911 4006.114259000667 23.47283976580607 0.29718988206486696
0.9878247561071961 13.027313275925252 3517.8551117935694 24.548465067572565 0.30150685118972825
1.0135649687745432 13.03377253423232 3093.3923560507683 25.67174756561948 0.30590717491811587
1.039526231950727 13.040230478900071 2722.506636803103 26.844595060469732 0.3103917211038021
1.0656750812460982 13.046549879841034 2399.2417857278715 28.0701285595005 0.31496941384414034
1.0920039011629556 13.052684060635947 2116.515975677452 29.35043272818235 0.31964090662746353
1.118500947437586 13.058517326781294 1869.3455620504108 30.688202113823703 0.32441046948032776
1.1451283677627329 13.0639779383269 1652.7540984365637 32.08689868222599 0.3292865831541294
1.171889155847661 13.068990375942244 1462.7663390343619 33.54839400822568 0.3342664971806384
1.1987424450590303 13.073451808593154 1295.9798177419614 35.07726169967462 0.33936399344789203
1.2256858702150115 13.07731870689726 1144.4420434492629 36.67556418667577 0.344576076537178
1.2526798650310087 13.080487661089144 1020.5825827163407 38.348281587636016 0.3499167505630372
1.2797175030266719 13.082927784974592 907.0706003698494 40.09770817075283 0.355382929690589
1.3067603734710131 13.084520222708209 807.1146204791316 41.92930142265486 0.36098909496634923
1.3337965859814644 13.08522748964183 718.8557131075114 43.84647827734227 0.3667368148523302
1.36080233123479 13.08503838600193 640.8966315955715 45.85403119396616 0.3726344282758315
1.3877316207660302 13.083780108688666 572.0523019720596 47.957238337448814 0.3786915952031275
1.4145870810480359 13.08149605143784 511.0653057478433 50.16078990138107 0.38491363763205627
1.4413083566296236 13.078048564313974 457.0633697116735 52.47002678728783 0.39130816436120586
1.467901090234328 13.073456960001488 409.2039542531938 54.891300383548945 0.39788654096419473
1.494309211754053 13.067597419545574 366.71695761072726 57.43079641462551 0.40465782151556096
1.5205197094978866 13.060461119387323 328.9896495201888 60.09513834312191 0.41163176960661624
1.5465024862650827 13.05198008830711 295.4287269071808 62.891426772001104 0.41881891675565447
1.5722178629610029 13.04210699031154 265.58932478190377 65.82728261873812 0.4262306255855184
1.5976413726756447 13.030787476244942 239.03944312175955 68.91089444424827 0.43387915832653545
1.6227221335212425 13.017949638226396 215.33794202618458 72.15107036701424 0.44177775127116564
1.6474801061693196 13.00364644431508 194.19483994261128 75.55729504679346 0.4499406958823957
1.6718286356429226 12.987722071698798 175.31167145715446 79.13958341952888 0.45838255509261616
1.6957675214343542 12.970182887801975 158.44112758807617 82.9079539544408 0.467115890918063
1.7192322156502133 12.95094922434891 143.35379753761592 86.87521605051862 0.4761625832089584
1.742234604489548 12.930056266204268 129.83903799658628 91.05304051148782 0.4855373652546502
1.7647159109204869 12.907416566193715 117.73812027614075 95.4553060509566 0.4952613404394178
1.7866438780912794 12.882994616248485 106.87547172660075 100.0958794327834 0.5053528379083579
1.8079830775118637 12.85675192552023 97.1330044442369 104.99117110583249 0.5158371327914065
1.8286965203628398 12.828630883252151 88.37588226759307 110.15769820534935 0.52673670296362
1.8487775691061068 12.798677806929495 80.5029203999508 115.61299393656635 0.5380745967926172
1.8681663510829667 12.766786775958465 73.41819092896068 121.37744901708724 0.549880853460146
1.8868400186246759 12.732950263521703 67.04235836789348 127.47236619818467 0.5621848646724574
1.9047656323145432 12.697149391169514 61.289624970027 133.92029451677968 0.5750163507302466
1.9219114022815573 12.65935168982383 56.10239968881386 140.74663673267523 0.5884106585987199
1.9382285293289159 12.619479375213302 51.41680235834417 147.97918013311377 0.6024064971684229
1.953740107262733 12.577688091279093 47.18662346464708 155.6465562146436 0.6170401359758024
1.968351070560054 12.533742154739354 43.360199214985506 163.7822330851778 0.6323586127012768
1.982073959865407 12.487764746718405 39.89758895227278 172.41979510904406 0.648402917576094
1.9948672701235959 12.439704388571716 36.763981880627576 181.59881200937937 0.6652272330519134
2.0067027170363687 12.389549599754474 33.92201348384758 191.36109327186094 0.6828854024175876
2.0175641482870543 12.337308172039537 31.34506061534369 201.7526298399408 0.7014366025878853
2.0274052620535934 12.282943675892952 29.006006240253367 212.8234991850604 0.7209440235190062
2.0362224739230506 12.226497776303122 26.883443019375274 224.62878594150655 0.7414767825771604
2.043974438119693 12.167925167306457 24.953617285395833 237.229950971715 0.7631131051753406
2.050642315368278 12.107241083878598 23.199046708867822 250.69351551619042 0.7859345945264858
2.0562172355796786 12.044494760637406 21.60315830344327 265.09263899442533 0.8100297540155824
2.0606798650156226 11.979688522880679 20.151103837423424 280.5092087897553 0.835498924726927
2.063998797212519 11.912828899829053 18.830493875782192 297.03241943367095 0.8624475210422693
2.066162686110867 11.843936688378866 17.626316487528364 314.76274100908864 0.8909965460662944
2.0671656189155807 11.7730710806365 16.530350321342492 334.05131474191717 0.9215803232162251
