M[M_sun], R[km], Lambda[1], P_c[MeV/fm^3], rho_c[fm^-3]
0.24162668629717493 15.618656898711224 2160425.4255784233 3.5677272577965504 0.1711233750220791
0.25362667944706074 15.27771053536526 1723635.896307305 3.7845128839060775 0.17388434991015442
0.2660046181040652 14.982027515461022 1383877.6455426586 4.010756731577803 0.17665886966377467
0.27876075175645926 14.724524835292211 1117414.7640564751 4.246724427915982 0.17944587180559898
0.2918930825806685 14.499604709213454 906885.300652122 4.49303657689657 0.1822518392176784
0.3054101437393373 14.302500765508999 739731.3000664279 4.749827396300325 0.1850720593503986
0.3193033834682017 14.129503002332141 606043.3611399733 5.017813851503591 0.18791391371392793
0.3335786717669562 13.97736293423829 498679.2459370382 5.297172394584799 0.19077309525424643
0.3482344743644489 13.84338605867092 411849.7601120948 5.588685975605582 0.1936570026589363
0.3632723149342901 13.725366057103738 341447.8585209399 5.892453018601264 0.19655942871825915
0.3786988417989283 13.62136543026174 284024.2980924647 6.209365385885275 0.19948864127058705
0.3945030895980039 13.529781198580162 237070.4083478992 6.539733086527522 0.20244175751574273
0.41069838062024444 13.449151832645427 198453.0122628259 6.884152641671857 0.20542070323688344
0.42727739410385673 13.378250394047772 166603.04710110294 7.2433741955881965 0.20842939311866943
0.444241990223623 13.316054763846784 140264.07844843192 7.617731673873034 0.21146457953666656
0.461590629140346 13.261641431722216 118390.45131216024 8.008023338054938 0.21453010350527849
0.479323318291743 13.214135099617483 100183.24359696308 8.415020127932676 0.21762871681853854
0.49744613724365244 13.17288676286604 84970.83299626152 8.839264016148638 0.22075936156559384
0.515946458392818 13.137231702006591 72233.37998651915 9.281424906389066 0.223922585082435
0.5348305556762375 13.1065943435728 61534.397919611765 9.742478071062228 0.22712267668120445
0.5541004383877018 13.080494920481222 52532.09920769456 10.223228429511472 0.2303609798145123
0.5737419876982035 13.058428807188523 44932.14250353402 10.724290531680992 0.23363603665633148
0.5937650140968871 13.040043059041613 38507.04212996941 11.246620307005745 0.2369504279789083
0.6141584985396845 13.024945336925551 33063.01659706404 11.791285485502126 0.24030750544111337
0.6349194622124054 13.012796872368645 28436.45154062598 12.359259045769843 0.24370889118229314
0.6560449641681869 13.003293724711892 24499.93643615176 12.951425223834823 0.24715476523865634
0.67753864795986 12.996198764718233 21141.35708804707 13.568716775313067 0.25064553192639893
0.6993841432162775 12.991204364153027 18272.306321817043 14.212510268302788 0.25418594331560623
0.7215735900532317 12.9880829792043 15817.875590571188 14.883987526114757 0.257777969000707
0.7441157158186631 12.986685718666164 13713.796238412064 15.584391228546938 0.26142368400633054
0.7669900352395754 12.986732843467811 11824.22345485938 16.31459904467727 0.26512112928728626
0.790194083294789 12.988068598623165 10351.76860918769 17.076332666731098 0.2688761877236736
0.8137106129716072 12.99052774116907 9012.204021201253 17.87108044947494 0.2726917044345889
0.8375509017718072 12.993959691076894 7856.412239279095 18.70036444739614 0.2765702266569114
0.8616888832544961 12.99818939337721 6858.362767917115 19.56537734805289 0.28051088791492756
0.8861117318645905 13.003091370080867 5994.600932878244 20.467993299228166 0.2845183362631564
0.9108243876554077 13.0085516729195 5245.871740861817 21.410164652759327 0.28859708306419696
0.9357994799535683 13.014431509593074 4596.542605779022 22.39377154491508 0.2927502898446004
0.9610262694111171 13.020605220040009 4032.1647510025923 23.420052766542508 0.29697549837631193
0.9865033603376109 13.026983367018495 3541.4245562846236 24.49175273513741 0.3012815600155717
1.0121983176937281 13.033429823323308 3114.25633339993 25.611109026146156 0.3056723895851935
1.038108700103654 13.039868768081346 2741.372592360992 26.77973311660909 0.3101466843595574
1.0642210348280823 13.04621666129121 2415.957571235548 28.00051991416892 0.3147119011969
1.0905003253054237 13.052342343895264 2131.711033586195 29.276316918520383 0.31937411302362806
1.116954231663907 13.058195052786402 1882.7024832551515 30.608709484725903 0.32413005408019135
1.1435412253720445 13.06367331076019 1664.6985567461838 32.001721341559325 0.3289922214536795
1.1702576191190495 13.068699914850429 1473.5020305542664 33.45766120127011 0.3339607182662543
1.1970690069900185 13.07318939115318 1305.7615945137413 34.97998581767258 0.33904232847766247
1.223975339075113 13.07709662290559 1158.195202223978 36.57202716793534 0.3442420821419074
1.2509271893959322 13.080297583226322 1028.5311936507603 38.23729410951316 0.34956516656321834
1.2779318984272985 13.082793491181018 914.2303066832378 39.97955917597788 0.35501741617178423
1.3049378339602566 13.084437479423249 813.5127017532634 41.80318012900092 0.36060697726324753
1.3319443594889668 13.08524371980275 724.5897640592688 43.71162308158328 0.3663359554685629
1.3589111716968743 13.085084133444703 646.0621759525623 45.71040106014939 0.3722167713573712
1.3858160820705774 13.083918651164892 576.6465737321219 47.80381265518547 0.37825392226016735
1.4126345378073093 13.081699969465836 515.2289988328074 49.996710134973355 0.3844538680446178
1.4393403609732922 13.07836162350224 460.85344095552216 52.295144838936444 0.39082800405363666
1.4658983901589908 13.073835081189735 412.623753108886 54.70484327051869 0.3973846319494978
1.4922914754675551 13.068103677931663 369.7945017109337 57.23192860911124 0.4041327009424764
1.5184771097123313 13.061058690307924 331.77855724193637 59.88295617915786 0.41108186116011697
1.5444460983381216 13.052705009558316 297.99069843481715 62.66489751437974 0.418242268945953
1.5701507124795289 13.042954418869837 267.88116535251083 65.58545681539623 0.4256259103949745
1.5955669192764004 13.031770987894296 241.08382579402152 68.65256978394311 0.43324414621099505
1.620659482062456 13.019107429457677 217.1922533904451 71.8750025757325 0.44111030760367453
1.6453997504217062 13.00491954790007 195.89107492168793 75.26213402651226 0.4492385148099657
1.6697471110003672 12.989150079598366 176.86942682209443 78.82407207797455 0.4576440164727819
1.6936961004806061 12.971783204463728 159.84074715757538 82.57169109529143 0.4663431598470941
1.7171869932379646 12.952749920392748 144.62077187119135 86.51514539467878 0.4753472003316144
1.740196096383239 12.93202785244555 131.00338712034068 90.66847085793302 0.4846808959447454
1.7626755611068345 12.909536309200824 118.78563313784909 95.04362836483809 0.4943580276729133
1.7846385248394414 12.885334346260352 107.8373512185965 99.65619431509674 0.504404016499589
1.8059963400858638 12.859268430032497 98.00511239233253 104.52010883234482 0.5148350162118165
1.826759731029019 12.831411533808721 89.16960232739477 109.65298248883178 0.5256782341431887
1.8468591673931198 12.801626114608608 81.22713276338159 115.0727399387715 0.5369586184604952
1.8662991494833432 12.769991825344515 74.08255353106313 120.79869192394942 0.5487027161093309
1.885009726016143 12.736363401614595 67.64623318439497 126.85186379968457 0.5609395213097432
1.9029973698934624 12.700836877209266 61.8412076418023 133.25516944819398 0.5737006861929456
1.9202017560881504 12.663290056479656 56.60598712730425 140.03360443072074 0.587020755858294
1.9365930820770225 12.623716086480616 51.881847433143236 147.213213613045 0.6009331224578599
1.9521616124290746 12.58215608367866 47.6077299940819 154.8241528419138 0.6154801890468979
1.966848274740577 12.538494042858483 43.74704770056449 162.89771397529847 0.630702427723873
1.9806421033610593 12.49277120071625 40.251594537778026 171.46925955656457 0.6466478576078479
1.9935379688455952 12.445055190636786 37.08744396493636 180.5762592240311 0.6633646389749044
2.00545339223664 12.395166202255936 34.21767519858436 190.2598991060614 0.680905772458892
2.0164130192846743 12.343239833649566 31.619828502076686 200.5654881142202 0.6993295431266063
2.026344982046625 12.28914749252967 29.25915126583652 211.54291451716549 0.7187000243818695
2.0352666794171523 12.233007680333113 27.113626379468062 223.24715986559153 0.7390876492297866
2.0431373823629335 12.174775933946037 25.166413042938533 235.7370858187076 0.7605640188036018
2.0499284893587326 12.114434198177346 23.394772549211016 249.079462696463 0.7832136663111519
2.055625279739704 12.052010819143074 21.783705760814275 263.3463094918527 0.807123760263696
2.0602011777752463 11.9875002210651 20.318481980989635 278.6174830161671 0.8323907256660917
2.0636604415961264 11.92098356837773 18.98255389450604 294.9816106859849 0.8591211959601572
2.0659605958218363 11.852424570746583 17.767068613709853 312.5371514915498 0.8874331035588627
2.0671149330461063 11.78191240112268 16.66059257654955 331.3915290528285 0.9174500588784199
