M[M_sun], R[km], Lambda[1], P_c[MeV/fm^3], rho_c[fm^-3]
0.24162668629717493 15.618656898711224 2160425.4255784233 3.5677272577965504 0.1711233750220791
0.2536458373356394 15.277254340063266 1723074.0757970156 3.7848648413863337 0.17388873689035592
0.26604509293757256 14.981138990400472 1382863.1571889299 4.011496581001424 0.17666781030742987
0.27882273580867545 14.723382697970886 1116245.3182247009 4.247877163061676 0.17945924179615422
0.29198039231729067 14.498262219719795 905747.1286938301 4.494632408680826 0.18226960917496934
0.30551904228841414 14.301022326249907 738526.768485787 4.751920466848192 0.18509466850700076
0.3194384252392418 14.127945642197671 604942.0318806714 5.020419539168659 0.18794094872915607
0.3337411911090728 13.975686439029678 497521.7686608864 5.300359248286334 0.19080518158307433
0.3484242454128841 13.841831409001177 410885.0913571828 5.592461911286572 0.193693535875374
0.3634910267303516 13.723772694948552 340536.76655019756 5.896902806275289 0.19660122206576905
0.3789465908252284 13.619837192548303 283211.9738116773 6.214542814609072 0.19953585318651806
0.39478435075045865 13.528270572785368 236317.12652571962 6.545632740181377 0.20249348950824536
0.41101304779805886 13.44771103964139 197786.3204790826 6.890888331111035 0.20547806719466985
0.4276252098969867 13.376885651002036 166007.2316428531 7.2510090555546824 0.20849255435852518
0.4446247352352654 13.314767154580107 139732.65854180657 7.626244565023076 0.21153234762399192
0.46200840825455664 13.260418276940134 117918.12174193395 8.017562637374038 0.21460389769770397
0.4797799395434448 13.213021447103197 99759.9950874347 8.4256601345661 0.21770871479396542
0.49794124754705854 13.171864944665494 84597.37827056528 8.850965468080638 0.22084408507722725
0.5164863799711132 13.13627141350363 71900.86219731228 9.294377026786682 0.22401376881750482
0.535408454866029 13.105745419176188 61244.41340570649 9.756768574161947 0.22722051702982918
0.554720771007649 13.079719504953326 52273.34140061483 10.23893817326288 0.23046552507677712
0.5744085358529423 13.057754242168315 44701.03298430057 10.741375552161825 0.23374572778009542
0.5944710489613 13.039440849779664 38301.34527047647 11.265325150784635 0.23706729618132727
0.6149138970351695 13.024462837974644 32879.856291161836 11.81172051721926 0.24043178452905115
0.6357231173378453 13.012409670939952 28272.743384537604 12.381541509710102 0.2438408273047084
0.6568994845481433 13.00297448158641 24352.884413793894 12.975452804351795 0.24729209703591826
0.6784373875537772 12.995944041748784 21014.856428106363 13.594830376262964 0.2507909254602356
0.7003314599995933 12.991031767411187 18158.456113861434 14.240849732135848 0.2543396862900085
0.7225719383203226 12.987997540431696 15603.825794593216 14.914701673158518 0.2579403662739127
0.7451657102327007 12.986649992715073 13623.322834924447 15.617382672677135 0.26159252410931066
0.7680925610359374 12.986753935972963 11826.726895338315 16.35022621035288 0.26529872177257746
0.7913443056085677 12.988150956083686 10281.035129226375 17.11481780357949 0.2690633279120066
0.8149235512158552 12.990693773218492 8948.457787584375 17.91261396489056 0.27288877799544736
0.8388134718352334 12.994150897639038 7800.729559080655 18.744934227051925 0.276775736819872
0.8630003192246427 12.998426645181269 6808.099488266761 19.61321606756727 0.28072551007908697
0.8874874602012005 13.00339622578869 5949.959743557559 20.519502917434423 0.28474405939682884
0.9122504819267918 13.00888236301257 5206.38540615375 21.46559084817094 0.28883440198224447
0.9372761994538206 13.014782336830617 4561.272527357581 22.45290559727745 0.29299598287191253
0.9625678740201978 13.020994215655735 4000.6937498090056 23.483591657919902 0.29723354869343965
0.9880936680075507 13.027387139438881 3513.1417188032988 24.560017150357908 0.30155274213060324
1.0138439340962753 13.03384646607712 3089.1733784867706 25.684055118323194 0.30595467213430033
1.0398135940183317 13.040294690462112 2718.8510557476015 26.85780856691915 0.3104416393518179
1.0659724329583558 13.046626815628906 2395.9592596612006 28.08430988266864 0.3150218767250512
1.0923090777719073 13.052755191401117 2113.6155825311785 29.36553160164516 0.3196952533011741
1.1188141355931762 13.058583773820331 1866.4151851456706 30.70439882968271 0.3244676044450414
1.14545181809625 13.064042845832724 1650.261535442386 32.10414037179723 0.32934582390125805
1.1722203360667092 13.069051832946437 1460.4335084846505 33.5668829454332 0.33432880680531696
1.199081600394845 13.073497321647453 1294.052207863314 35.097085164052224 0.3394295442704354
1.2260346908480608 13.077362511911847 1147.7872588518214 36.6966646449713 0.3446441433493586
1.2530350102209276 13.080518030759048 1019.0642466760235 38.37077869426478 0.3499876842157958
1.2800834904976746 13.08295289285798 905.6662396200652 40.12178926390413 0.35545742854782564
1.3071391127551246 13.084555632064081 805.8549875146924 41.95494290344511 0.3610666130474454
1.3341731665137515 13.085238193518858 717.7339642360371 43.87396767734762 0.36681852756561684
1.3611861686897857 13.085029052048665 639.8599176931667 45.88331090563015 0.3727195697000022
1.3881285053231125 13.083776722903243 571.0886792997303 47.98843344372655 0.3787803865455934
1.4149767556905406 13.08143984710579 510.206518359897 50.19424252654575 0.3850073755743232
1.435125611378196 13.075676790492743 467.9047550154026 52.81589487595146 1.2134224198252166
