M[M_sun], R[km], Lambda[1], P_c[MeV/fm^3], rho_c[fm^-3]
0.24162668629717493 15.618656898711224 2160425.4255784233 3.5677272577965504 0.1711233750220791
0.2536436241489023 15.277281231560636 1723246.1123271913 3.7848128021459386 0.17388808824632895
0.26603922413311637 14.981273786369744 1383124.22880927 4.011387183222877 0.17666648829983828
0.2788137082028159 14.723545731140307 1116493.48956245 4.247706704711962 0.1794572647361728
0.29196735237068705 14.498480872725398 905972.5475962609 4.4943964158353795 0.18226698133986421
0.3055034116731997 14.301206528377579 738678.3872477848 4.751610925339525 0.1850913248679383
0.3194183963029291 14.128167090958145 605137.4557916245 5.020034167824732 0.18793695035272315
0.3337170198328075 13.975970563067962 497705.01789627015 5.299887900032633 0.19080043588826776
0.3483962526784013 13.842066738618918 411029.8303329874 5.591903408245587 0.19368813220481357
0.36345873754628355 13.724006517098438 340674.34370076127 5.896244599365021 0.19659504004717637
0.3789113990035466 13.620032497611101 279400.18156847585 6.2137769371162035 0.19952886930595962
0.39474204296969073 13.52849888960941 236419.96550251966 6.544759986250195 0.2024858366353017
0.41096648018039184 13.44790357716221 197888.28822848454 6.889891850282865 0.2054695807457802
0.4275735403180804 13.377091722896107 166085.96445623966 7.249879495219352 0.2084832097953525
0.44456808459991365 13.31495519013702 139814.6510663925 7.624985046216337 0.21152232104442237
0.46194836280354834 13.260602514465067 117991.56953451413 8.016151188463098 0.2145929789992704
0.4797128865841386 13.213196501026093 99829.99228633927 8.42408574718925 0.2176968776018447
0.49786919556334874 13.172021647931938 84653.98321063329 8.84923394646512 0.22083154812090863
0.5164053558734096 13.136433559502533 71945.71278162325 9.292460346083823 0.22400027526586558
0.5353233548872373 13.105861979810273 61282.340939576374 9.75465373626811 0.22720603773015904
0.5546290681734177 13.07982423455223 52307.54385370888 10.236623571675512 0.2304501862358629
0.5743100416540666 13.057856083350254 44333.46913362535 10.738846933291875 0.23372949326368223
0.5943645197508478 13.039550234252316 38332.29139833932 11.26255666447357 0.23704999862875636
0.6148015160495874 13.024521846536643 32906.46581703038 11.808695805349615 0.24041338923426336
0.6356024780722693 13.01246374771674 28298.225275702815 12.378243193485698 0.24382129772959885
0.656773377132766 13.00302503811254 24374.16136816698 12.971896030374888 0.24727176797439004
0.6783039432927126 12.995983484672822 21030.696532391026 13.590964630574659 0.2507694020239384
0.7001907904736122 12.991063071782454 18175.387280643252 14.236654283063965 0.25431692577403464
0.7224237912097423 12.988009172890576 15732.34558082965 14.910154456807659 0.2579163234269795
0.7450106213437261 12.986650420788807 13636.241551671086 15.612504580148945 0.2615675905360732
0.7679300803711809 12.986757452186449 11837.521847207356 16.34495117234372 0.265272427031127
0.7911725114614769 12.988131138981078 10290.801021347252 17.10911934031028 0.26903561821479
0.8147463181252098 12.990658931153481 8957.947355500139 17.906463840778173 0.272859596096289
0.8386274216936591 12.994121819089626 7809.046717771401 18.738359722427045 0.27674553037286076
0.8628057310420005 12.998391122404621 6815.850921192511 19.606131684455185 0.2806937269199497
0.8872806699123235 13.003343579168241 5956.5378587921 20.511874551696074 0.28471063071536656
0.9120386380161524 13.008845164232733 5212.087751565944 21.45738205999455 0.2887992543284314
0.9370584787965408 13.014730055693782 4566.185432964815 22.444150584879843 0.292959619534761
0.9623351909605443 13.020923709053664 4005.2257029887423 23.474180533731996 0.29719532732179516
0.9878596570861302 13.027319598278947 3517.3098967387145 24.549905607588673 0.3015125737713558
1.013599926890043 13.03378263800497 3092.4911495144693 25.67328230189898 0.30591309776099196
1.039562085864122 13.040238790648365 2722.0050351807618 26.846242753877036 0.3103979457927955
1.065712381905078 13.046558426462674 2398.859381319058 28.07189692205218 0.314975955786162
1.0920425670311018 13.05269346391723 2116.31647025904 29.352315492888074 0.3196476834243807
1.1185399516784778 13.05852837239692 1869.001919845743 30.690221756924245 0.3244175939022345
1.1451687708669331 13.0639889905735 1652.499741073268 32.0890486124845 0.329293970102738
1.1719299098210454 13.068996414142624 1462.4810487626976 33.550699441633434 0.3342742667289227
1.198785491469449 13.073455594821338 1295.7243720343965 35.079733516163465 0.33937216707490964
1.2257292235587312 13.07732373723209 1149.3167468422816 36.67819521378199 0.3445845638233484
1.2527232493104523 13.08048725778693 1020.4231549054982 38.351102093583044 0.349925685307561
1.2797639321527339 13.082935956198483 906.8970064793841 40.10071080364865 0.3553922188336538
1.3068071962140346 13.08452350502535 806.9362721037456 41.932498592856426 0.3609987604962377
1.333843435775237 13.085236789999689 718.7869488518588 43.849905826473595 0.36674700330094634
1.3608501247598874 13.085034046711437 640.7844324559403 45.85768194082988 0.3726450441517947
1.387780478854528 13.083776848932674 571.9587925727474 47.9611278737334 0.3787026660789631
1.4146362253710063 13.08149138439846 510.94423038365926 50.16496087209798 0.3849253251516555
1.4413587213108858 13.078041702098107 456.99130246527193 52.47447257179948 0.3913203708197833
1.4679517097495378 13.073447208480566 409.11608898745567 54.89604066501151 0.3978993009493709
1.4943607964072294 13.06758461136421 366.62878801142716 57.435852470444445 0.40467117228856475
1.5205716832551228 13.060443874046415 328.9208254553836 60.10053318767806 0.41164575132182524
1.5465545184171836 13.05196164127778 295.36441463131234 62.897185313617506 0.41883357270189253
1.5722702077600106 13.042086724625378 265.5344377453347 65.83343183247284 0.42624600245144373
1.59769429314652 13.030762041022317 238.98606665697108 68.91746356229153 0.4338953064927266
1.622781637761518 13.017946231594312 215.29740190195278 72.1580910886874 0.44179472513182577
1.6475335870371366 13.003612397403623 194.1491807606309 75.56480177039562 0.44995855419994857
1.6718820625618966 12.98768414323419 175.28177790792668 79.14757430700244 0.4584011977416703
1.695819595978306 12.970142056117187 158.4091040727218 82.91650695856787 0.4671355456966366
1.7192851058456813 12.950904079242978 143.32501050605822 86.88437519367464 0.4761833241618226
1.7422867925273486 12.930003342347494 129.8119965338654 91.06280960633059 0.48555909789480084
1.7647668162683487 12.907362775348652 117.71000965945865 95.46577919279545 0.49528432085115115
1.786694248148079 12.882934155667389 106.8499398767049 100.10706574045166 0.5053769774750018
1.8080333609429557 12.856685765276412 97.10914428533324 105.00312857800849 0.5158625245086361
1.8287457601145116 12.828560219849917 88.35426560947363 110.17050105388904 0.5267634881740693
1.8488261702664956 12.798603060741817 80.48609945828076 115.62674157510916 0.5381029946699012
1.8682140077809137 12.766702089242496 73.4035439400097 121.39217740566897 0.5499108350619462
1.8868854437584732 12.732862599946028 67.02597801618028 127.4881580152842 0.5622165587233711
1.90480988656811 12.697056651211431 61.27432426563149 133.93718219385372 0.575049692248368
1.9219548278952967 12.65925068404923 56.09009607071824 140.76477526435238 0.588445999356162
1.9382698599557462 12.619371413818849 51.40552956037838 147.99867812404034 0.6024440025240556
1.9537702234988794 12.577539685722025 47.17502289471677 155.66746874018975 0.6170797673050857
1.9683894038039378 12.533622148461474 43.35103550259664 163.80468685448852 0.6324005565289531
1.9821081245226717 12.487633649017727 39.89075327285322 172.44399682869386 0.6484476034052661
1.994901016255318 12.439568554461427 36.7560054512296 181.62484940040923 0.6652746605207033
2.0067402143971984 12.38941924733729 33.911354038918006 191.38913538879967 0.6829358140675229
2.0175922542146356 12.33715827195479 31.336707603822028 201.78286316781623 0.7014902637625924
2.027431662588563 12.282785498363562 28.998809347268356 212.85605343735568 0.7210009752357378
2.0362464270109197 12.226332072387754 26.87772457458392 224.66396237897104 0.74153758588675
2.0439961643796143 12.16775125087303 24.948709739271678 237.26792093867542 0.7631778474569887
2.0506627354182836 12.107058269793576 23.194308193598875 250.73463570734754 0.7860039138740139
2.0562376329531786 12.04432713667076 21.598220510438463 265.1371333049277 0.8101037951333233
2.060690219275053 11.979490360766308 20.14763161818988 280.5573287434056 0.8355778526507346
2.064000638140479 11.912609005913017 18.826175680986733 297.08462562752374 0.8625321044306749
2.066167847160694 11.84372227674702 17.623687690967788 314.8194525767949 0.8910873301318852
2.0671664777580423 11.772843401530084 16.527698021704396 333.8712514469762 0.9213696553513415
