M[M_sun], R[km], Lambda[1], P_c[MeV/fm^3], rho_c[fm^-3]
0.24162668629717493 15.618656898711224 2160425.4255784233 3.5677272577965504 0.1711233750220791
0.2536372675627933 15.277447632332539 1723333.40449444 3.7847073040279207 0.17388677326318183
0.26602616896206444 14.981584212166757 1383219.9582482993 4.011165409829043 0.17666380829925551
0.27879514619360773 14.723895496526488 1094381.6879433808 4.247361157946625 0.17945325691442277
0.29194284097345413 14.498821241056282 906257.2777422185 4.4939180332989945 0.18226165443929476
0.3054706807002947 14.301660873887183 739018.8294284242 4.750983469545145 0.18508454714784162
0.31937740359150907 14.128658525456329 605415.2592719399 5.019253022059731 0.18792884566391668
0.3336675628790378 13.976479294169767 498008.9710341448 5.298932505758711 0.19079081665321512
0.3483397044900125 13.842534536324116 411302.8062171674 5.590771385515403 0.19367717957349032
0.3633924495729775 13.724498840148646 340942.4997737421 5.894910523946566 0.1965825101285258
0.3788370899810127 13.6204867121086 283570.9748567217 6.212224672788055 0.19951471452433484
0.3946584842933527 13.52893978033464 236640.21663165579 6.54299115006805 0.20247032633156492
0.4108727813909697 13.44833413354379 198075.15675268252 6.8878723059076785 0.20545238145841221
0.427470086515031 13.377487089885264 166267.31131010284 7.247590301173144 0.2084642718796784
0.4444531241665195 13.315347286707821 139977.99378819883 7.622432534571122 0.21150200141046685
0.4618219524314747 13.260972029602005 118134.97579560005 8.01329085184857 0.2145708519830742
0.4795747792781586 13.213534502294037 99956.94752137865 8.420895292807975 0.21767288984507094
0.49727256132181613 13.17275908756721 85084.71401460098 8.844317185055411 0.2481457971305945
0.5134566022733191 13.137218960120881 73619.08816161352 9.314887329558175 0.2952044867006454
0.5283831405088055 13.103060891393456 64462.94055987614 9.818196560399205 0.3388683907509782
0.542396936699473 13.068500580016043 56892.93968073574 10.36025715670166 0.3807306250199972
0.5557387289906183 13.032591392914457 50487.854233547594 10.941503426141916 0.4207374222489375
0.5686223701513883 12.994981251468715 44958.13767004091 11.562401392857078 0.45891349813761684
0.58121765162177 12.955399722427156 40109.125861980654 12.223506588207774 0.49533653869460165
0.5936816985458455 12.913916295954373 35818.48303693564 12.925503856597159 0.5301170878901145
0.6061251657907732 12.87066064632372 31983.119650206318 13.669234086906647 0.5633835899858981
0.6186525287029331 12.825898630252619 28543.47827150171 14.454665694618715 0.5950921941995685
0.63137348254564 12.779796208255057 25447.04769385162 15.28114376740342 0.6251693198389319
0.6443369069689023 12.732671824631836 22658.63397204618 16.152053255485754 0.6541447176102706
0.6576278435251234 12.684849830554002 20138.339870146523 17.06897571355846 0.682129909008796
0.6712983840888176 12.636615418869292 17870.01079113433 18.02909234163626 0.7086794446719986
0.6853896613218764 12.588242820299442 15829.328357029866 19.036545050599013 0.7342287426024331
0.6999554666796992 12.540105008204025 13995.379354022283 20.09322558875458 0.7592423870252262
0.714983931398406 12.492208129267512 12353.996083473883 21.196979712304543 0.7835374787709857
0.7305185384951581 12.444999655449717 10888.374709895086 22.354168204503466 0.8075087715660363
0.7465922087130682 12.398717302498076 9583.463789232672 23.56193100217891 0.8309465741374124
0.763181545136209 12.35342329809415 8422.282273264564 24.825312420479303 0.8541046520942229
0.7803216007182838 12.309353715035092 7393.858517240499 26.146580729806878 0.8770423606207712
0.7979958829358283 12.26660773315164 6484.932953092845 27.523712015109922 0.899643360225752
0.8161884658946135 12.22520405329917 5683.396969344144 28.96309651239617 0.9221462649204214
0.8349239140561955 12.185354489206736 4977.579539064222 30.466530814456625 0.9445732049404822
0.8541633786094727 12.146909446378135 4357.114007133832 32.03613835084357 0.9669589142126882
0.8739091655288318 12.110147892989282 3813.3183714815414 33.674371829824366 0.9893463847869137
0.8941383258862559 12.074927157567826 3337.2930364218296 35.3840165200108 1.011784085751069
0.9148350947336434 12.04110920036854 2920.414936217182 37.16819560240615 1.0343242212730182
0.9359752481789693 12.00880936273474 2555.791849849863 39.030378226072216 1.0570216834445572
0.9575353595491047 11.977956075148038 2237.577562523922 40.97439058939882 1.079933473747642
0.9794913214840972 11.948432770523281 1959.685022201974 43.00443021805095 1.1031184443117394
1.0018088576821547 11.920216368818673 1717.4492967461451 45.125083549407194 1.12663726106303
1.0244724253949038 11.893048792645489 1505.7441283368792 47.33873623661357 1.1505000195037691
1.0474313875341115 11.867221138098481 1321.4597412411167 49.651052441298305 1.174782663064146
1.0706865338309326 11.842260963873096 1160.3996137465153 52.06773692938867 1.1995545045246745
1.0941689371927632 11.81828955446983 1020.0607132431645 54.592568462311206 1.2248445457107242
1.1178584586859417 11.795033409740588 897.4936268402294 57.23180676080872 1.2507251545877236
1.1417199849104416 11.772455588280078 790.4920919432692 59.992341956500844 1.2772732524232053
1.165706099318404 11.75040550754404 697.0152836544894 62.879895197196454 1.3045434572261536
1.189800241633015 11.728831558134555 615.355131139573 65.90019286914071 1.3325908429605091
1.213946625901451 11.707589700637179 543.7540824383698 69.06191510837552 1.3615132041364153
1.2381112112981685 11.686506844535264 481.20631690501006 72.3726166522668 1.3913901435844245
1.262253950172342 11.665577809095842 426.3689022497388 75.8399158171844 1.422304344428316
1.2863291518866848 11.64459127517949 378.2687136172921 79.47390466765953 1.4543732419520488
1.3103066457233912 11.623520305864924 336.0405744327176 83.2849578194688 1.487720575944555
1.3341310237371897 11.602175733342152 298.956036755099 87.28080213178751 1.5224500710102569
1.3577865341908264 11.58051763384116 266.32950523120775 91.47557850940647 1.558749306001702
1.381192837543103 11.558420620995266 237.5805584650295 95.87885172689873 1.59677867842784
1.404351536836065 11.535747479236944 212.2701120964811 100.50446736317694 1.636772968640303
1.4271762466659377 11.512428344724933 189.91281385539972 105.36644151647126 1.6790133111704755
1.449671412752771 11.488324335956534 170.1730409808949 110.47957625872087 1.723858773336368
1.471757755211917 11.463469639747624 152.7039402228484 115.86010254309122 1.7717882721739282
1.4934405366056827 11.437709155921658 137.21961907909758 121.52347943509375 1.8234724596649636
1.5146346186748754 11.410918194057214 123.51748958144512 127.49064554535356 1.8798748845683688
1.535332383143563 11.383069612412205 111.34159145780369 133.77930064341234 1.9425129474946976
1.555501173103158 11.354047630961501 100.50297410731407 140.4119181178368 2.0138308633254636
1.5750866398752876 11.323819226710643 90.87297889787452 147.41127591880058 2.0685853661151667
1.5940449975620417 11.292371902948767 82.29377415164333 154.8052836532009 2.113849852489973
1.6123262536879135 11.259500534260216 74.64567767706893 162.6230449492088 2.161391762337473
1.6299058555744597 11.225240096341333 67.82525346904688 170.8951256487356 2.2113551429499894
1.646720315151408 11.189547229805218 61.72258237963828 179.65602250199083 2.2639051912624906
1.6627338756629384 11.152249673109853 56.276982221983225 188.94168261181653 2.3192061401797526
1.6779177551805913 11.11336500258782 51.3958452443601 198.79336277075456 2.3774522051211187
1.692227828625206 11.072756837033314 47.01905932332067 209.25439146065287 2.438838460726464
1.7056439980371163 11.030519829627082 43.09421566202221 220.37364324678762 2.5035884400860673
1.7181074313331794 10.986535275900518 39.57203013787533 232.2036345167993 2.571935450896019
1.729596928151219 10.940716294024359 36.4011630774542 244.802674060301 2.6441385798882306
1.740107124956928 10.893055944985344 33.539678318846576 258.23456557653975 2.7204767108470915
1.7495849844066451 10.843609485263126 30.976879857230433 272.56897518587965 2.801247058690223
1.7580216394941777 10.792246778051442 28.658780351740056 287.8838149017512 2.88678344929576
1.7653764825949263 10.739017407859977 26.570513945180114 304.26385080729256 2.977438728090353
1.7716374050034789 10.68386278754474 24.67745438668927 321.8036450420982 3.073606262690355
1.776791016034014 10.62686264621766 22.967663226589696 340.6073128261665 3.1757109076455445
1.7808218216330336 10.567900310046959 21.422939166931027 360.7904827781157 3.2842197931564807
1.783700288410922 10.507098137441867 20.021610887640527 382.4815613602983 3.3996453930831327
1.7854166948379002 10.444447801167554 18.756138828647966 405.8223203097383 3.522539653651007
1.785979942307642 10.379977305430664 17.608539183027606 430.97213525689676 3.6535245256853943
