M[M_sun], R[km], Lambda[1], P_c[MeV/fm^3], rho_c[fm^-3]
0.24162668629717493 15.618656898711224 2160425.4255784233 3.5677272577965504 0.1711233750220791
0.2536416180366403 15.277350066390486 1723237.1122866434 3.784792223599871 0.17388783174467964
0.26603596957446096 14.98136527612392 1383115.0991695072 4.0113439232412595 0.17666596552849073
0.2788106616958233 14.723617122575359 1116498.9795611536 4.247639299978297 0.17945648294283906
0.2919636767555926 14.498515131161687 905970.6884092203 4.494303097842455 0.182265942222355
0.3054956934349943 14.301351363543297 738725.8461968759 4.751488525794084 0.1850900027192445
0.3194108475522103 14.128262399723054 605196.302234662 5.019881785360618 0.18793536932584373
0.3337062825140349 13.976069268125997 497768.5943126748 5.2997015231789435 0.19079855938260623
0.3483853205204241 13.842160211865238 411111.14895631507 5.591682571933191 0.19368599555274116
0.3634454994836571 13.724185389677547 340720.35365209606 5.895984342612413 0.1965925956606797
0.3788972109980887 13.620145517613185 283369.6638957876 6.213474110850979 0.19952610789504735
0.39472612921854144 13.528579884717283 236463.26255825083 6.5444149051499085 0.20248281074023392
0.4109483017706938 13.448012265610512 197924.16752769865 6.889497853135861 0.20546622530074182
0.42755266429189837 13.377203533219244 166129.63965357278 7.249432885300998 0.20847951510595428
0.44454599930752686 13.315030743237136 139848.13084556794 7.624487058155033 0.2115183567392491
0.46192395701250655 13.260688674932238 118015.503399629 8.015593136906965 0.21458866201931842
0.4796858668283735 13.213247424764875 99846.22320508001 8.423463281140094 0.21769219752734661
0.4978389772175334 13.172078563287576 84674.56161677076 8.84854936125225 0.2208265914314667
0.516374315924883 13.136482367564444 71966.59540982125 9.291702563981033 0.22399494043261972
0.5352900499756793 13.10590364473138 61300.460736371744 9.753817620045764 0.22720031323591874
0.5545923037256809 13.079872379760664 52319.994119836134 10.235703671976816 0.23044406006272364
0.5742703282861523 13.057903350169788 44346.71173668088 10.73784724717848 0.23372307496917025
0.5943242981956878 13.039575762026223 38344.48333998939 11.261462159558201 0.23704316014223867
0.6147578512879466 13.024559003910118 32916.962617474026 11.807500016764655 0.2404061168445376
0.6355554098985526 13.012476628509168 28308.381536014727 12.376939253077065 0.24381357700168307
0.6567241023918253 13.003057013902467 24383.112102877836 12.970489925980985 0.24726373125827475
0.6782512134620529 12.996004145655728 21038.710222654285 13.589436397268326 0.2507608932303269
0.7001360081889036 12.991076545285498 18182.06966298731 14.234995727932194 0.25430792803149893
0.7223658884414975 12.98800766045533 15736.972351623343 14.908356860578374 0.2579068188581063
0.7449488617767475 12.986657887352374 13641.618694517534 15.610576200735052 0.261557733939654
0.7678651952777904 12.986755188702224 11842.043985529965 16.342865898398525 0.265262032463515
0.7911055038137262 12.98811539093506 10294.740773669884 17.10686670787738 0.26902466442607414
0.8146758379675921 12.99064935434377 8961.834688930263 17.904032692220518 0.2728480604702184
0.838553263328508 12.994115820006567 7811.650102836831 18.735760840210485 0.27673358985377344
0.8627294866418396 12.998386895598749 6818.805843787569 19.603331280942104 0.28068116327550857
0.887200512447254 13.003321672977131 5959.425942004719 20.50885915074436 0.28469741676085086
0.911957584875456 13.008816331577561 5214.571954524403 21.45413726273776 0.2887853610462289
0.9369713004526878 13.014708863193418 4568.235098922981 22.440689906883893 0.2929452458485771
0.962245946221863 13.020905105340939 4007.2016061627614 23.470460551760787 0.2971802193696957
0.9877660530713211 13.02729856544414 3518.8073335551985 24.545908814926566 0.3014966964114758
1.013503962817563 13.03376250193314 3094.214125381909 25.669024168148518 0.30589666480277866
1.0394621180575048 13.040215931970735 2723.351741994764 26.841671229924305 0.31038067539849434
1.06561245027432 13.046552261003557 2399.8778678272383 28.06699061242321 0.3149578052134175
1.0919373944916972 13.052665095634385 2117.3098025941454 29.347091784559503 0.3196288812817711
1.118430395419267 13.058505163678856 1869.9556844598821 30.68461829362824 0.3243978273223625
1.145058116048209 13.063968787858538 1653.1402691390078 32.08308368064422 0.32927347518445693
1.171815151854789 13.068976473625504 1463.2298417069028 33.544303084479246 0.33425271034582105
1.198666016286763 13.073440742511403 1296.3792793646082 35.07287554987445 0.3393494896395908
1.2256099726207583 13.077305242579737 1149.887888465102 36.670895537090516 0.34456101619630736
1.2526004408948932 13.08047379058392 1020.9743782192771 38.343276734129624 0.34990089628430193
1.2796379817946546 13.082926601690838 907.4143569672865 40.0923801578072 0.3553664465985093
1.306679290581321 13.084518789969648 807.3916515121172 41.923628231054856 0.3609719440486576
1.3337123804854059 13.085235435462813 719.1970147293356 43.84039631519879 0.3667187361154805
1.3607167081078726 13.085041613248853 641.1217608542896 45.84755320267227 0.37261559115711745
1.3876450072166666 13.083787069179047 572.2683716330774 47.95033665368014 0.37867195078320987
1.4144988427815073 13.081506492838418 511.2422016375523 50.15338886358407 0.3848928991085378
1.4412268398520538 13.078080377800436 457.23373497215096 52.46213814205982 0.39128650509702967
1.467812931131424 13.073473017526458 409.3653141718703 54.882889208883554 0.3978638995947123
1.4942183374800575 13.067617194761137 366.8462789287502 57.421824960183194 0.40463413193299647
1.52042776111776 13.060486107394116 329.10877829591146 60.085565777041445 0.41160696057062574
1.5464106506542448 13.052012404950332 295.54509789168594 62.881208902450425 0.41879291146529135
1.5721257184385806 13.042145956546818 265.698291506884 65.81637158739379 0.4262033412084699
1.5975481298580254 13.030833105884238 239.12754114737203 68.89923838854756 0.4338505054810014
1.622635101370363 13.018032245351355 215.42630766763062 72.13861304763883 0.44174763345520296
1.6473874000130608 13.003703168093212 194.27365167536414 75.5439754364019 0.4499090088449265
1.6717363180565987 12.987788467687912 175.38289378245145 79.12540477805636 0.458349476484275
1.6956752984617105 12.970257770235884 158.50407646639007 82.892777984637 0.4670810165836535
1.7191465218150788 12.95105684187879 143.41465301550215 86.85896465200771 0.47612578178717135
1.7421437018312298 12.930144032063385 129.89966408064151 91.03570691893921 0.4854988043914956
1.7646282126531145 12.907522608403468 117.78077622623742 95.43672333166656 0.49522056580397583
1.7865542362182079 12.883100278606575 106.91794907461414 100.07603140773305 0.5053100067313815
1.807894584250016 12.856865164651008 97.17267626725899 104.9699548805327 0.5157920800925114
1.8286092713612787 12.828753795262962 88.41093340937637 110.13491180762594 0.5266889162775096
1.848692118674678 12.798811748667728 80.53710626741726 115.58860163435206 0.5380242107133788
1.8680827483402123 12.766928786804453 73.44823483404835 121.35131669867118 0.5498276576362773
1.8867586221972474 12.733106746823173 67.07001691919115 127.44434718932548 0.5621286307452447
1.904685959609168 12.697315550920301 61.31107707123439 133.89033127982856 0.5749571939970026
1.9218336194508794 12.659528860604643 56.12430330218899 140.71445430830252 0.5883479549976844
1.9380844382671558 12.619842064673215 51.45930377878036 147.96545075649908 0.6698120434000929
1.949903791226512 12.579603630671523 47.87689433002758 156.19512088179798 0.9890962894032074
1.955921716377456 12.535295218453678 45.28547756072272 165.70053971779228 1.3016887475084906
1.956865372143498 12.484895786224937 43.35927720091077 176.54377871048084 1.608099917415298
