M[M_sun], R[km], Lambda[1], P_c[MeV/fm^3], rho_c[fm^-3]
0.24162668629717493 15.618656898711224 2160425.4255784233 3.5677272577965504 0.1711233750220791
0.2536415662424733 15.27736415000579 1723210.6311666644 3.7847954764877625 0.17388787229035796
0.26603785417601705 14.981264859052112 1383046.7803461235 4.011350761402378 0.17666604816363224
0.2788113151434133 14.723563458190641 1116473.7070243862 4.247649954698111 0.17945660652153256
0.29196300149973764 14.498545522387387 906020.0370137197 4.4943178486466495 0.1822661064759832
0.3054979079570701 14.301292851933283 738739.8129838504 4.751507873468378 0.18509021171105247
0.3194116391808104 14.128261029595743 605190.0222115781 5.019905872358905 0.18793561923774768
0.3337077007051221 13.976064070761307 497738.1084022981 5.299730983559542 0.19079885599975524
0.3483869580223037 13.84209708379297 411070.54861452617 5.591717479183482 0.19368633328999038
0.3634476580464637 13.724102474372158 340709.2751840324 5.896025480868524 0.19659298203988687
0.3788993796718071 13.620100734154128 283358.0367242798 6.213521977843145 0.19952654438438028
0.3947270518052709 13.528603613887618 236455.25029533435 6.544469451112388 0.20248328903463686
0.41095120081275516 13.447998987784796 197918.2201028838 6.889560130936147 0.20546675568462294
0.4275555019850259 13.377173399278744 166114.62424254877 7.249503479222983 0.20848009911137919
0.44454960115388625 13.315034712621507 139845.8390273374 7.624565773022295 0.211518983360206
0.46192770331106553 13.260662920132637 118013.27752405188 8.015681345509096 0.2145893443841695
0.4796898993544275 13.21323903963757 99843.41347457058 8.423561671165027 0.21769293728278738
0.49784419231828025 13.172058928592474 84672.13961764652 8.848657569869799 0.22082737490809173
0.5163796138063234 13.136467606452452 71962.28535224978 9.291822342097653 0.22399578367802803
0.5352948425861925 13.105902996957914 61297.651644713376 9.753949779607924 0.22720121807023744
0.5545978436925257 13.079869411607817 52317.76990443721 10.235849074260212 0.23044502838520944
0.5742761999204393 13.05791298069722 44747.55969810191 10.73800526038517 0.23372408946290354
0.5943308908316252 13.039571103611788 38345.04503617911 11.261635159621811 0.23704424104976676
0.614765476366142 13.024537003422601 32915.91299861887 11.807689025454007 0.2404072663327229
0.6355628758722084 13.012457832979267 28074.573453852332 12.377145355896564 0.24381479735177078
0.6567311860508422 13.003060975941132 24381.50177641193 12.970712176489222 0.24726500155104172
0.6782607801793508 12.99599034604853 21037.69219784497 13.589677950963155 0.2507622381365836
0.7001442863704747 12.991080593127142 18181.32101717007 14.2352578796831 0.2543093502175419
0.722374022410157 12.98801401041082 15736.26807173434 14.908640988440148 0.25790832114921425
0.7449582603371521 12.986650880895489 13640.60472146929 15.61088099948982 0.26155929186870736
0.7678755585078613 12.986758805371352 11841.48450290187 16.343195494937635 0.2652636754195968
0.791116121990198 12.988125041886413 10294.146369002883 17.10722275598276 0.2690263957674426
0.814687159945015 12.990644617516658 8961.12265364533 17.904416955301294 0.27284988377106056
0.8385654868807578 12.994112618940715 7811.211780007768 18.736171614064418 0.2767354771470921
0.8627418150889034 12.998383523471862 6818.179242766885 19.603773905615448 0.2806831490532691
0.8872110725292518 13.003327612560923 5958.837523046026 20.509335756054654 0.2846995053192194
0.9119699307017157 13.008827625826274 5214.163246552052 21.454650124325227 0.28878755697102837
0.9369849658971869 13.014714058000637 4567.870612040713 22.441236888615524 0.2929475176992861
0.9622597601442815 13.020917053033362 4007.113238459541 23.47104851645661 0.2971826072690268
0.9877807605337041 13.027304818442122 3518.6415602103516 24.546540529373658 0.30149920591308516
1.013519056030442 13.033762367572473 3094.005757588246 25.669697187415125 0.30589926211374474
1.039478810049286 13.040215563695137 2723.161323818244 26.842393780007775 0.3103834050626004
1.0656291037935455 13.046551425003841 2399.6278350948764 28.067766074661183 0.31496067398543254
1.0919533831092467 13.052668978232509 2117.1476471356323 29.34791741102437 0.3196318530301074
1.1184478527814536 13.05850857541868 1869.7926930770955 30.68550393916958 0.32440095149439796
1.1450737580278927 13.06396599895168 1652.9891609797141 32.08402645520927 0.3292767144650029
1.1718338499743013 13.06898217881505 1463.1140084724057 33.54531404401699 0.33425611738369754
1.198684752698323 13.073439593215227 1296.2709143937716 35.073959464546135 0.33935307385156005
1.2256286142017403 13.077313755270463 1149.8106834176378 36.67204926207375 0.3445647379345105
1.252620228500138 13.08048187318291 1020.8674821369003 38.34451354022161 0.3499048142148665
1.2796589398509417 13.082922836547283 907.3550272569472 40.09369682156897 0.3553705199163193
1.3066989901399473 13.08451895202914 807.3067312229454 41.92503019362207 0.36097618239389473
1.3337331155116585 13.085235274391893 719.1176041498957 43.84189929060768 0.3667232037356774
1.3607375984975771 13.085037968921624 641.0821712144434 45.84915404240717 0.37262024618160894
1.3876667924060422 13.083789175404867 572.2209040253389 47.952042193536315 0.3786768053002008
1.414521094128062 13.081502952911832 511.20755466155816 50.15521779995702 0.38489802398980777
1.4412411998468369 13.078060287520765 457.19126348532205 52.46408757228248 0.3912918575020327
1.4678342475257784 13.073468812450132 409.3222875807684 54.88496776235557 0.39786949468683924
1.494240777390172 13.067612129626038 366.8037976296549 57.42404196517605 0.40463998604763995
1.5204509734215776 13.06047873532618 329.0860152390843 60.08793132325798 0.4116130913114041
1.5464338513401912 13.052004257436494 295.52026271234166 62.88373390982602 0.4187993378098092
1.5721475761955797 13.042136183361755 265.65090485370695 65.81906788183315 0.4262100836246353
1.5975711423008954 13.030821134357389 239.10451586657453 68.90211878537721 0.43385758605504426
1.6226592671237234 13.01802023250466 215.3990864612157 72.14169144364969 0.4417550760326726
1.6474098350159279 13.003690508794346 194.2509969153978 75.54726691146688 0.4499168391861037
1.6717593203548338 12.987770935629515 175.36436269424487 79.12890852676749 0.45835765068993256
1.6956975320885332 12.970238325317556 158.4874936933541 82.89652818007254 0.467089634521842
1.7191608275362802 12.951011702999176 143.39493582951314 86.86298059262427 0.4761348759167875
1.742166306464187 12.930123064477492 129.88869069039785 91.03999027658863 0.48550833328561827
1.764646857206128 12.907490006723817 117.76958947837045 95.44131535482391 0.495230641728132
1.7865762299270378 12.883074956990418 106.90822930246257 100.08093609435127 0.5053205908323198
1.8079169342567198 12.856837418458975 97.16161642925402 104.97519765548871 0.5158032131361199
1.8286299788979883 12.828722994027293 88.401037596326 110.14054257703454 0.526700724893051
1.8487133632953796 12.798777102057352 80.53069019493755 115.59462922760814 0.5380366616410833
1.8681037592689311 12.766895281773047 73.4415434772911 121.35777425397406 0.549840802852444
1.8867783783560617 12.733068419966008 67.06179820433299 127.4512709488711 0.5621425266754071
1.904705721752672 12.697274291702715 61.30646741874612 133.89773546115734 0.5749718121499235
1.92185258469036 12.659485549495221 56.118820864449425 140.72240685125288 0.588363449575551
1.9381738295287834 12.61961957435147 51.43471223127395 147.95313436753975 0.6023563968424835
1.9536781821888454 12.577810658109385 47.20335610241798 155.61862100095632 0.6169871959495108
1.9682998826929445 12.533903820653833 43.373550632524655 163.75216377700235 0.6323023286092988
1.9820261351610253 12.487934545116454 39.91139067828592 172.38746643983998 0.6483432262231522
1.9948221865944598 12.43988262561855 36.775066677564865 181.56403140649002 0.6651638797014902
2.0066619066765257 12.38973960367752 33.9318075115401 191.32363494282694 0.6828180631302381
2.017523879731549 12.337509909509595 31.353808666028907 201.71224471368149 0.7013649229724392
2.027369905142578 12.283158286576327 29.014140285006718 212.78001401169715 0.7208679488098425
2.03619026534474 12.226719721487687 26.89063122900712 224.58179836363345 0.7413955634301912
2.04394628409932 12.168156940507888 24.961428821555675 237.1792321404005 0.7630266249088382
2.0506181275448445 12.107484089199424 23.205629290923447 250.63858904513447 0.7858420009118048
2.056196900911033 12.044748813713843 21.60937617411128 265.03320585329385 0.8099308538157469
2.0606625108560177 11.979954295312503 20.15722017233234 280.4449330485368 0.835393497551281
2.063987679173286 11.913104403283127 18.835815414623006 296.96268595111354 0.8623345403056032
2.066156346147482 11.844223949403812 17.63124374447114 314.68699002047936 0.8908752836326037
2.0671633576871153 11.773367047969506 16.53506416114701 333.72739258093634 0.9211424417637967
