M[M_sun], R[km], Lambda[1], P_c[MeV/fm^3], rho_c[fm^-3]
0.24162668629717493 15.618656898711224 2160425.4255784233 3.5677272577965504 0.1711233750220791
0.2536444825297951 15.277263677637372 1723145.5404216407 3.7848314395211036 0.17388832055221942
0.26604052826074676 14.98125389273807 1382958.9720209308 4.011426362785468 0.17666696176173
0.27881693527491136 14.723474943928974 1116330.6261778967 4.247767752050223 0.17945797279330025
0.29197197838797595 14.49837905629154 905857.6978076749 4.4944809329633255 0.1822679224576993
0.3055080268716979 14.301205029479942 738640.0114611384 4.751721782102545 0.18509252233255225
0.31942552295771603 14.128096251336153 605068.5742846043 5.020172180909065 0.18793838229174126
0.33372389569565336 13.975910779290247 497648.90966989036 5.300056703054177 0.19080213545459984
0.348406277812289 13.841983122360544 410979.2029152978 5.592103422752828 0.19369006740019323
0.36347020614369485 13.723932211232698 340639.04054600437 5.896480319086539 0.19659725397668448
0.37892456675362013 13.619963776183498 279369.00996610057 6.214051214712349 0.19953137038738475
0.3947566138845198 13.528412861312981 236378.03272680874 6.545072537039326 0.20248857728348693
0.41098322070675686 13.447853010396106 197849.78077968446 6.890248708192686 0.20547261989748986
0.4275917578104435 13.377028445523026 166074.61448395014 7.250284009093587 0.20848655623496604
0.4445882923531726 13.31492140838396 139792.78559684794 7.625436098102594 0.21152591170746238
0.46197081437964815 13.260534710308526 117969.38798808075 8.016656645977369 0.21459688912178815
0.47973625161544414 13.213128350078346 99808.774367827 8.424649551966787 0.21770111662558717
0.4978945876344716 13.171956166979363 84631.39554074442 8.849854019738169 0.22083603771634244
0.5164335938641099 13.136382287360615 71931.28044359796 9.293146722819158 0.22400510740087293
0.5353539360488334 13.105818804560673 61268.01589919577 9.755411070459676 0.22721122284091486
0.5546609949901066 13.079809565485023 51812.17865543278 10.23745680012145 0.2304557352122694
0.5743456551014202 13.057820914841557 44321.94100628999 10.739752435650843 0.23373530686931632
0.5944034578387368 13.039507092527058 38322.584308661855 11.263548058540234 0.23705619287682544
0.6148413586864044 13.024488198102029 32897.22458586849 11.809778948036126 0.24041997654898103
0.6356476028587081 13.012418221724912 28287.58763026072 12.379424307111869 0.24382829119102153
0.6568189753228225 13.003020663200644 24366.182244968713 12.973169691064852 0.24727904769660475
0.678352027155089 12.995981934198259 21024.88239554982 13.592348925080938 0.25077710940487463
0.7002410163390552 12.99105704641453 18169.16294016814 14.23815663404472 0.25432507610142746
0.7224761448289997 12.987995791700879 15726.06544341154 14.911782763853196 0.25792493290012425
0.7450659690289105 12.986639235133666 13631.683939294546 15.6142513626883 0.2615765189297277
0.7679881037548333 12.98674963243758 11834.078736443575 16.3468400861202 0.26528184279254685
0.7912350313544558 12.988137611404547 10286.98049371759 17.111159865778344 0.2690455405991613
0.8148085888020745 12.990668708906615 8954.405719336117 17.908666086950845 0.27287004559691025
0.8386926823123488 12.994142783457011 7805.913320959191 18.740713921332286 0.2767563466987351
0.862877176658972 12.99840711037899 6813.116852300993 19.60866844726987 0.2807051077748466
0.8873586901099727 13.003365610165917 5954.195091204778 20.51460608829679 0.28472260073228234
0.9121167622126023 13.008857306530453 5210.1307236648045 21.46032141638222 0.28881183980128405
0.9371365141660705 13.014749771295596 4564.253807949134 22.447285516558825 0.29297264025619607
0.9624216580635522 13.020959621164865 4003.7386145079277 23.477550382999002 0.29720901328094823
0.987942177633239 13.027345212817115 3515.7277889504458 24.553526236642416 0.30152695681179303
1.0136868710685456 13.033801563894029 3091.4215349295932 25.677139695502174 0.30592798418579875
1.0396526167200817 13.040258812677624 2720.791695252451 26.85038407081605 0.310413590942466
1.0658052996532974 13.046582644354944 2397.651668614444 28.076341548436595 0.3149923983918296
1.0921385515523427 13.052709708143974 2115.142611642399 29.357047675844445 0.3196647163774485
1.118637250088526 13.058554937261267 1867.9447144463397 30.695297995545946 0.32443550066290466
1.145269025988162 13.064011480578639 1651.6530115006224 32.09445233862258 0.3293125367735028
1.1720339450320993 13.069016648204114 1461.7193290781763 33.556494042152536 0.33429379513012036
1.1988923725683251 13.07347619540775 1295.1192198078882 35.08594634126952 0.33939271120323466
1.2258386163448556 13.077342192764583 1148.7858671302233 36.6848082339231 0.3446058964026501
1.25283605786759 13.080495500724616 1019.9276698085401 38.35815656486843 0.34994793834036664
1.2798784472336366 13.082937623206732 906.4594723096602 40.108257909864015 0.3554155670589589
1.3069236215165776 13.084521429704735 806.6038194606866 41.94053469920142 0.3610230548631834
1.333961598836949 13.085239716678414 718.426550109697 43.858521033599004 0.36677261215198004
1.3609716938791592 13.085033089181607 640.4522368733813 45.866858196563555 0.37267172745696814
1.3879028359103864 13.083771144523391 571.6688443161181 47.970904373642085 0.37873049315362606
1.4147529261102607 13.08146130346781 510.70369059759827 50.175444821760685 0.38495470233396556
1.44148405514854 13.078025105017275 456.7561361578298 52.48564732780633 0.3913510525129589
1.468079117712228 13.07342162801113 408.8931229175291 54.90795570935106 0.397931374105859
1.494489702816267 13.06755379902738 366.4305562791229 57.4485612932801 0.4047047305827966
1.520702038195267 13.060403460929702 328.7503046476035 60.11409364621936 0.41168089570225264
1.5466855547057523 13.051914644100576 295.20912186387096 62.91166002679871 0.41887041199772945
1.5724017848663459 13.042030805909965 265.3900200658704 65.84888861542953 0.4262846540399909
1.5978164132276906 13.030694390287177 238.8493154454183 68.93397590510716 0.4339358970338368
1.6229137420039945 13.01787245811125 215.16892355838166 72.17573868443337 0.44183739137685346
1.6476662933564432 13.003531897097883 194.03613516180602 75.58367109810965 0.45000344388340896
1.6720141181007397 12.987596898483691 175.18085087276353 79.16766074386584 0.45844805916906883
1.695951902094225 12.970038490009237 158.32387073555964 82.93800648493172 0.46718495154560397
1.7194318289684993 12.950822848524329 143.23921305963663 86.90739848651532 0.4762354605924311
1.7424100636348518 12.929869111991733 129.74782660122446 91.08736624880387 0.4856137273853287
1.764895657538307 12.907226725322442 117.64527250922876 95.49210575487325 0.4953420872067855
1.7868221678110165 12.882786081524838 106.79590336838159 100.13518514563776 0.5054376579314676
1.8081600641092224 12.856523605534598 97.0582125180178 105.03318664359773 0.515926352873919
1.8288688188071502 12.828383075400918 88.30383685888702 110.2026568314956 0.5268307173513581
1.8489482794011491 12.798410306137294 80.43988787433176 115.66130007524261 0.5381743806059553
1.86832318009992 12.766468381561936 73.36549628834679 121.42920150658044 0.5499862025635827
1.8870009629026123 12.732642867594336 66.99064983563403 127.52780054821848 0.5622960348048329
1.9049230096940863 12.696820947737605 61.24037429578985 133.9796347783447 0.5751335068315636
1.9220629629596073 12.65899783357376 56.05877990800743 140.81037256275317 0.588534840233223
1.938375770752594 12.619104192210193 51.37771082152217 148.0476932024864 0.6025382854660989
1.9538700989678124 12.57725487114722 47.1514978041498 155.72004006903694 0.6171793952357154
1.9684842220799124 12.533317660067889 43.32665299251481 163.86113302260614 0.6325059984400971
1.982197764322455 12.487311338303757 39.868232996554354 172.5048375815623 0.6485599392032474
1.994984659363882 12.439225749001105 36.734021396957424 181.6903052959177 0.6653938893419693
2.0068199414661336 12.389061912464284 33.894652074997786 191.45963150028038 0.6830625457726055
2.0176672017640196 12.336779783376805 31.32223703962846 201.8588684014658 0.7016251655550223
2.0274985884643137 12.282391068563905 28.983670627611207 212.93789394090845 0.7211441503003415
2.036306790814113 12.22591517724916 26.86212201619511 224.75239568169903 0.7416904449558137
2.0440484945264785 12.167315047511554 24.935334864565814 237.36337787659346 0.7633406103049627
2.050705389158798 12.106601344694107 23.181129506084158 250.8378254406679 0.7861775735626471
2.056276268116622 12.043847266038792 21.588407232970575 265.2489943839367 0.810289938467786
2.060719646193795 11.978991675774251 20.136687524095766 280.67830585108993 0.8357762832645121
2.0640221068837112 11.91208962776284 18.814913271244013 297.21587701229953 0.8627447551917811
2.066179462665221 11.843180723997785 17.614076390133288 314.96203222300295 0.8913155721022062
2.0671701476321234 11.772279961208444 16.51925622919206 334.02609976688115 0.9216142259034349
