M[M_sun], R[km], Lambda[1], P_c[MeV/fm^3], rho_c[fm^-3]
0.24162668629717493 15.618656898711224 2160425.4255784233 3.5677272577965504 0.1711233750220791
0.2536440403231441 15.277286798795211 1723216.4222017762 3.784820526249061 0.17388818452354815
0.2660399261180916 14.981278723762193 1383121.575621366 4.0114034208293 0.17666668452172912
0.27881514747738717 14.723545383497168 1116445.2628219316 4.2477320051652585 0.17945755818330406
0.2919701003133126 14.498393922559597 905872.2471197923 4.494431443038714 0.1822673713759027
0.30550463736340133 14.301234327873953 738649.8011934947 4.751656868628079 0.18509182114313877
0.31942166257562843 14.128133061001092 605090.7162972095 5.020091365627365 0.18793754380200178
0.3337194297658088 13.975944281082466 497659.4043807732 5.299957858207809 0.19080114025101017
0.348400406817846 13.8420316104462 411008.48893655307 5.591986301460255 0.19368893421946862
0.36346430444456784 13.723965081632434 340659.1016092392 5.896342289924566 0.19659595757758516
0.37891640362321977 13.62000865461022 283299.01457308617 6.213890607207943 0.1995299058403286
0.3947476329437938 13.528479567220003 236416.03266720523 6.544889517854169 0.2024869724524799
0.41097190192104377 13.447893898631792 197876.35979746995 6.8900397439865095 0.20547084027062162
0.4275813832888367 13.377060464116227 166078.88000520822 7.250047138826915 0.2084845966679545
0.44457641230895384 13.314925319777561 139799.15412508298 7.625171976377233 0.21152380912869878
0.4619576071858873 13.260580686272686 117984.55074375079 8.016360665665493 0.21459459947478599
0.4797218857243513 13.213185334189003 99813.4793081736 8.424319404887697 0.21769863438108955
0.49787982399897873 13.171991366984452 84644.9367908924 8.849490923126822 0.22083340874173704
0.5164163669165858 13.13641522195055 71937.11099533967 9.292744800362373 0.22400227784172022
0.5353360516622623 13.105845144614669 61278.47228061597 9.754967596815396 0.22720818658560182
0.554640613469252 13.079835037586442 52300.81038985515 10.236968884335436 0.23045248588347111
0.5743249995700949 13.057838723478316 44730.30218144151 10.739222197681567 0.23373190257730642
0.5943811270757611 13.039526818192584 38329.24366491895 11.26296752397996 0.23705256568638733
0.6148184702862188 13.024517564632479 32901.82066917995 11.80914468710441 0.2404161191842752
0.6356217858268186 13.012458344130792 28292.204503403853 12.378732676041885 0.2438241959921351
0.656792515204653 13.003014185616099 24371.189078752268 12.972423865953038 0.2472747848661056
0.678324632630535 12.995980434469182 21028.60857776352 13.591538314487137 0.25077259614226394
0.7002116187191163 12.991059117768962 18172.849645084876 14.23727689127117 0.25432030345394513
0.72244666050253 12.988001995762163 15730.015505321671 14.910829262904548 0.2579198913811839
0.7450334748576114 12.986649980307085 13634.515438553877 15.613228484063436 0.26157129065269963
0.7679535682135299 12.986753696200223 11836.21780754977 16.345733977136998 0.2652763291166873
0.791197887266079 12.988143408403218 10289.087453356073 17.10996497466595 0.2690397302483058
0.8147743502053538 12.990652953755612 8956.748523320326 17.907376493844687 0.2728639265698318
0.8386543392954635 12.9941225841411 7807.384901481563 18.739335346252254 0.27675001285953627
0.8628353121782478 12.998395275556906 6814.880214986345 19.607182964346652 0.2806984433498152
0.8873147119673594 13.003358772417345 5955.568828893652 20.51300654736478 0.2847155912959055
0.9120707841246881 13.008842590647147 5211.176890891124 21.4586001776254 0.2888044699553757
0.9370913334557196 13.014737068622454 4565.46559731877 22.445449750288958 0.2929650155282379
0.9623694873828865 13.020933456633877 4004.577181607108 23.475577050253104 0.2972009989903328
0.9878937620247299 13.027332018987423 3497.382459097811 24.551406048381796 0.3015185343103342
1.0136366755058626 13.033788401693084 3091.873530563555 25.67488085902988 0.3059192669008248
1.039600079579565 13.040244866998341 2721.5785401382896 26.847958969663047 0.31040442934699686
1.0657506126939504 13.046569887629154 2398.4048078991987 28.073738829880092 0.3149827698041403
1.0920818209310776 13.052697077421222 2115.8547630235007 29.35427656480523 0.31965474207917816
1.118579783515166 13.058536421603621 1868.6462279717862 30.69232540563355 0.3244250146593696
1.1452103641545612 13.063994657221329 1652.1653442161376 32.09128797222676 0.32930166432224434
1.171973297442214 13.06900733299157 1462.0625556659973 33.55310077920313 0.33428235948412083
1.1988293747707792 13.073466830033757 1295.4966625827878 35.082308165051735 0.33938068074079425
1.2257750276850032 13.077328158977373 1149.1098878863224 36.68093570270025 0.34459340421638013
1.252769997730501 13.080491043358474 1020.2188906056946 38.35403396188567 0.34993495665879365
1.279812083772092 13.082938338681968 906.7240720865417 40.10383837421008 0.35540189449211707
1.306855141549488 13.08452291303717 806.7576574214171 41.93582880285046 0.3610088282255743
1.3338916246553825 13.085234906823093 718.6101582735638 43.853476011970166 0.3667576157386061
1.3609003398458666 13.085034039132962 640.660218093715 45.861484621282436 0.37265610182999565
1.3878310560758362 13.08377491137948 571.8296365701834 47.96517929101543 0.3787141977203737
1.4146875863085138 13.081484988851862 510.8477655641022 50.16930544986896 0.38493749913735215
1.4414109458082225 13.078031970603996 456.90468426828903 52.47910341334814 0.39133308537564954
1.4680048767339828 13.0734374946703 409.0346909950362 54.900978274533 0.39791259210619306
1.494413764016601 13.06757153531201 366.5409915014523 57.44111901296797 0.40468507886243665
1.520624862211019 13.060429638567935 328.8516205223057 60.10615263776333 0.41166031514287804
1.5466090738940212 13.051942005509249 295.3028689105646 62.90318361888747 0.418848838865691
1.5723249928551868 13.042064457091177 265.47093818186806 65.83983709363469 0.42626201959548066
1.5977491694942525 13.030737979262863 238.92803054041877 68.9243062315012 0.43391212710073845
1.6228361658408568 13.017917766139172 215.2446824197383 72.16540418833658 0.44181240586896614
1.6475879368746982 13.003580787925106 194.10153256751826 75.57262113466108 0.4499771562822303
1.6719372442515097 12.987646481453268 175.24311342673474 79.15589802065544 0.45842061687039326
1.6958743666716531 12.970099635415183 158.36777048891116 82.92541622911347 0.4671560191744024
1.719354599520711 12.950889553104977 143.28237053580082 86.89391588171078 0.4762049291261166
1.74234028575683 12.92995012605788 129.78086948568645 91.07298568317047 0.48558173592009035
1.7648208627448085 12.907304812020314 117.68296691125015 95.47668868387012 0.49530825871053996
1.7867474370729526 12.882869416857314 106.82558320151693 100.11871814482986 0.5054021228581247
1.8080859906529054 12.856619300257123 97.0868694966117 105.0155843167689 0.515888974296002
1.828796389287495 12.828486289799576 88.33398402845528 110.1838260316617 0.5267913471580444
1.8488764731109093 12.798524744540652 80.46494170795694 115.64106217460355 0.5381325760867977
1.8682636099089727 12.766618297904689 73.38262555993296 121.40751968142433 0.5499420663130673
1.886932868216258 12.732771308094765 67.01238851232867 127.50460810081273 0.5622495739137693
1.9048562478503681 12.696959227109838 61.25819493723118 133.95477387449347 0.5750844236881192
1.921999694748962 12.659145278470676 56.07735109810538 140.7836700143856 0.588482813514537
1.9383141535414112 12.619271932655295 51.39515251283526 148.01898908845993 0.6024830716746502
1.9538116380713508 12.577419873966264 47.16382183384918 155.6892532953182 0.6171210512177189
1.968429307596451 12.533495041408056 43.34043538823642 163.82807700726266 0.6324442495287209
1.9821452185699477 12.487498813824931 39.88132111226508 172.4692079322009 0.6484941529513668
1.994938156568282 12.439426262755612 36.7471916665875 181.6519728428971 0.6653240662472827
2.006773257117334 12.389271532341672 33.90515950605648 191.4183472964735 0.6829883286642924
2.017621836307653 12.337002052312087 31.32931680321519 201.81435782779945 0.7015461636773705
2.0274612080393157 12.282620128199893 28.993707284888554 212.88996598773107 0.7210603032136961
2.036271727574882 12.226160326129003 26.87149455458145 224.70060669077154 0.7416009264520745
2.0440180328014685 12.167570574249552 24.94372820903717 237.307475524935 0.7632452916601075
2.050679057678192 12.106869464453032 23.188767110916206 250.77740581149493 0.786075910340011
2.0562543315068114 12.044128138861204 21.594729352947404 265.18348496757136 0.8101809269929372
2.0607026984182335 11.979284144295285 20.143072256702716 280.6074576295389 0.8356600756913892
2.064010234288961 11.912391186659114 18.8224045039192 297.1390116292548 0.8626202194984236
2.066172866092638 11.843497428694915 17.589531718660968 314.87853238649154 0.8911819052871053
2.0671676465559803 11.772612393041756 16.52437239699179 333.93541470293417 0.9214709960888025
