M[M_sun], R[km], Lambda[1], P_c[MeV/fm^3], rho_c[fm^-3]
0.24162668629717493 15.618656898711224 2160425.4255784233 3.5677272577965504 0.1711233750220791
0.2536455303643126 15.277244305193339 1723120.9932934898 3.7848525675118765 0.17388858390243192
0.26604299441881685 14.981192272759642 1382887.878982023 4.011470778460918 0.17666749849895547
0.27882071393563373 14.723434296475949 1116339.081158818 4.247836958496318 0.17945877548378306
0.2919774007195236 14.498290750906994 905757.2272850808 4.494576746659169 0.1822689893654397
0.3055146070092229 14.301105567727584 738552.7611970712 4.751847456885909 0.1850938798600665
0.3194334291152994 14.128007313539491 604998.2684629007 5.020328643001991 0.1879400056463442
0.333733812244456 13.975829374862325 497598.6718594564 5.300248072280983 0.1908040622251748
0.3484176417025968 13.841887175161643 410919.6564919834 5.592330177397358 0.1936922613137571
0.3634836992137793 13.723824610102758 340593.69497043604 5.896747554222015 0.19659976390562986
0.3789388466959226 13.61987038143509 283230.4736108562 6.214362164951059 0.19953420587915333
0.3947733366463595 13.528344531524278 236340.4312816098 6.54542688001524 0.2024916843926918
0.41100208134580474 13.447738940727481 197806.35951504292 6.890653285407484 0.2054760654468253
0.42761325561530567 13.376954308396655 166033.5341743348 7.250742617870388 0.20849035018784515
0.44461068136599896 13.314818700576247 139756.06509830183 7.625947471336705 0.2115299825672178
0.4619934252335879 13.260487637831496 117937.6407408754 8.017229704462133 0.2146013221924657
0.47976367921331 13.213061068877105 99773.3208909969 8.425288765305645 0.21770592261629151
0.4979240016059647 13.171900273061716 84609.3484979129 8.85055703141629 0.2208411278212658
0.5164674513439828 13.136304107564172 71194.3743623076 9.293924911361794 0.22401058589672748
0.5353885806575371 13.105766015428738 61248.83900856551 9.756269713361515 0.22721710156472702
0.5546984298496161 13.079740463381322 51793.62854076371 10.238394652313398 0.23046193852521266
0.5743849435692404 13.057784728668478 44710.57949869492 10.740779079212883 0.233741898238999
0.5944462587690503 13.039478480436177 38309.3032480801 11.264672091710466 0.2370632158564139
0.6148869666281638 13.024462176278814 32609.23146161264 11.811007012573677 0.24042744523034978
0.635695516694473 13.012417353249415 28278.200568622986 12.380763459202527 0.2438362204099194
0.6568692811647544 13.003001370152486 24358.77820799581 12.974613781010994 0.24728730152255995
0.6784063276606275 12.99595578130397 21017.017504909163 13.593918462547997 0.25078584816898697
0.7002984211029284 12.991048393930761 18162.732174142835 14.239860036589956 0.25433431714336996
0.7225373604053646 12.987992406809674 15720.78806759109 14.913628989959351 0.2579346945934877
0.7451290352887684 12.986649112183576 13626.400293711853 15.616231930245306 0.26158664227731676
0.7680543891123417 12.986754554673341 11829.17562320164 16.34898182071567 0.26529251880233967
0.7913044353430759 12.988143358103338 10283.6818821743 17.113473518887762 0.2690567911107637
0.8148819879208373 12.990683533826031 8950.63368787143 17.911163122965668 0.27288189385425393
0.8387700626596242 12.994150332871639 7802.917884202217 18.743383263926297 0.2767686109467996
0.8629546381252524 12.99841733985389 6809.796273741383 19.611544810690333 0.28071801220348674
0.8874398596801287 13.003380333438253 5951.59544877256 20.517703319770984 0.2847361732808356
0.912201488340191 13.00887025371625 5207.745707997435 21.463654311504325 0.28882611029303384
0.937226345536506 13.014770585911434 4562.686072127644 22.450840190105488 0.2929874043463847
0.9625139231009544 13.020991311098117 4001.808080240182 23.48137145223826 0.29722453177847913
0.9880384365891564 13.027369658972296 3514.0461989245327 24.55763169144903 0.3015432658347888
1.0137859601280228 13.03382236274058 3089.983798586272 25.681513642093833 0.30594486408807053
1.0397538436660902 13.040284207693754 2719.4823055319252 26.85507999244453 0.31043133128878597
1.0659102134216558 13.046607996123765 2396.574647460336 28.081381432082985 0.315011043112947
1.0922456413642687 13.052744065341871 2114.1759849511222 29.36241365658347 0.31968403061338
1.1187494952211903 13.058577887061212 1866.9880146425978 30.701054151373512 0.324455805875576
1.145385463401692 13.064030968725408 1650.6748027848073 32.100579879613626 0.32933359040080956
1.1721523579777329 13.069033151144605 1461.0075200078184 33.5630648593829 0.33431593946166627
1.199011876465728 13.07348770291554 1294.3909908014682 35.09299145556986 0.3394160074862911
1.2259631026843019 13.077350491504049 1148.1491749708111 36.692307197309475 0.34463008689771996
1.2529635351678095 13.080513507979427 1019.434600994618 38.366139816886374 0.3499730768356443
1.2800087473460344 13.082951444772963 905.945779042486 40.11681620972476 0.35544204357958475
1.3070625562716978 13.084553824130758 806.1108359181009 41.94964757181003 0.3610506044576734
1.3340963514947566 13.085239426380648 717.9605238175958 43.868290673949836 0.36680165257558867
1.361106498739373 13.085027639385638 640.0811956599305 45.87726412986446 0.37270198649746794
1.3880477162380092 13.083777766530538 571.2800786696469 47.98199105729653 0.37876204943416597
1.414894171044688 13.08144873181546 510.37554221632297 50.18733385551547 0.38498801671674504
1.4416275964832266 13.078002325697904 456.49155201524917 52.498319834034334 0.3913858464670832
1.4682235618693202 13.073394854082922 408.66066969062126 54.92146781447981 0.3979677462627665
1.4946353086706183 13.067518245065665 366.2160229947018 57.46297367073946 0.4047427871998111
1.5208483623025773 13.06036092945145 328.55516856325625 60.12947192361555 0.41172075128895597
1.5468334635012821 13.051864112186557 295.03220662348207 62.92807523372487 0.4189121900044233
1.5725513375106068 13.041968275379162 265.2290677504685 65.8664176764365 0.42632848761490466
1.5979650720895286 13.03062149347528 238.68560923410158 68.95270218291333 0.433981929856533
1.623074034850996 13.017804287706412 215.03242052295388 72.19575257907213 0.4418857785761586
1.6478166125336418 13.003438306015699 193.91375033768978 75.60507070842493 0.45005435304921426
1.67216449161749 12.987490752749205 175.0819169982168 79.19044082269018 0.458501204832345
1.6961011369776493 12.969925727199946 158.21939106163813 82.96238935112146 0.4672409833010936
1.7195817297819413 12.950694295303125 143.149251832725 86.93350969260345 0.4762945896272629
1.7425515635637154 12.929751373807063 129.6600672992097 91.6000601901169 0.48672493064687256
1.750255564741984 12.907151724571603 123.98154438815507 97.0516474565318 1.7129554293418507
