M[M_sun], R[km], Lambda[1], P_c[MeV/fm^3], rho_c[fm^-3]
0.24162668629717493 15.618656898711224 2160425.4255784233 3.5677272577965504 0.1711233750220791
0.2536441470147545 15.277290998494417 1723254.590248459 3.7848225724919606 0.17388821002897875
0.26604054128097354 14.981250006734614 1382973.4365209916 4.011407722448168 0.17666673650425452
0.27881564848954765 14.723484570723699 1116415.251117768 4.2477387076986775 0.17945763592259123
0.2919702865644264 14.498420141375778 905896.9559046336 4.494440722374673 0.18226747470346225
0.30550623283880385 14.301190294894939 738602.3141148266 4.751669039852561 0.1850919526155923
0.3194216242704581 14.128147657051846 605105.6914885743 5.020106518405236 0.18793770101792065
0.33372112063802634 13.975908619466704 497674.166625937 5.29997639148088 0.19080132685031773
0.34840151073809983 13.84202334580838 411004.2572981938 5.592008261510253 0.19368914668899337
0.3634644428499138 13.723972684426624 340640.6080448104 5.896368170126622 0.1965962006499197
0.3789176283611973 13.619997119828737 283298.4859734215 6.213920720760534 0.19953018043966914
0.39475130665217634 13.528436233738194 236400.13097477565 6.544923833500437 0.20248727335433953
0.41097580309945136 13.447855939573582 197858.81755504332 6.890078924202674 0.20547117394578382
0.4275832162694587 13.37705506980677 166082.10780225013 7.250091551288048 0.20848496408086353
0.4445784907259422 13.314925828445135 139799.86113826925 7.625221498339912 0.21152420335536423
0.46196020285212436 13.260592948562573 117980.19583873148 8.016416160929529 0.21459502877551928
0.47972475028920614 13.213148435418695 99803.66540338978 8.42438130621141 0.2176990997925074
0.49788274308836744 13.172020083233589 84643.57705739015 8.849559002277104 0.22083390166387307
0.5164199606235922 13.136411830984018 71938.34934279551 9.292820159095674 0.22400280837190073
0.535338667525167 13.10584658201608 61275.36026858245 9.75505074610072 0.22720875586962264
0.5546461022630903 13.079821792676151 52298.60083804594 10.237060366191125 0.2304530951169428
0.5743279956761767 13.057848284360539 44729.253675093336 10.739321614622593 0.2337325408648633
0.5943854111588874 13.039520433462913 38328.328262880466 11.263076371126289 0.23705324576532733
0.6148228919217346 13.024500360031208 32901.76717333629 11.809263607494733 0.24041684241866265
0.6356268335642189 13.012432689519471 28291.862143956285 12.378862352833337 0.2438249638180397
0.6567974259005463 13.003013229278979 24370.59966993471 12.972563703647857 0.24727558412102604
0.6783319821534445 12.99596074094421 21028.037409565528 13.591690298857642 0.25077344235051985
0.7002173723242292 12.99106468404527 18171.952762456123 14.237441837260803 0.2543211982939891
0.7224522492457722 12.987992244794807 15729.628351433379 14.911008037819691 0.2579208366315499
0.7450391239288576 12.98664413160321 13633.369991696727 15.613420266599103 0.26157227091780755
0.7679605700346099 12.986759793902198 11836.433889443722 16.345941364491086 0.26527736289063286
0.7912043543036661 12.988139428565566 10288.59420028244 17.11018900770931 0.2690408196451317
0.8147796459406907 12.99065743920853 8955.854855504664 17.90761828245805 0.27286507383951353
0.8386623094343981 12.99413333498265 7807.399599110284 18.739593817994486 0.2767512004034549
0.8628430443562037 12.998396350305475 6814.538464337829 19.60746148005931 0.2806996928741672
0.8873227995937385 13.003354872062648 5955.129706465056 20.5133064475842 0.2847169055051673
0.9120799146337581 13.008842343345227 5211.109339309853 21.458922894686594 0.2888058517363771
0.937099122271864 13.01473325424887 4565.127982865244 22.445793939851217 0.29296644509572767
0.9623830482957799 13.020952320693425 4004.4370083101576 23.475947031754686 0.297202501595143
0.9879037430895108 13.027330122628983 3516.5512258187846 24.551803563350045 0.3015201134485938
1.0136454746533228 13.03379523215664 3091.7839418385365 25.675304368713423 0.305920901306257
1.0396096060953879 13.040249268403874 2721.414788420539 26.848413651677685 0.3104061470537738
1.0657601355944457 13.046575685770778 2398.2910682652096 28.074226812645822 0.31498457506458194
1.092092534429524 13.052707239783825 2115.7609092004614 29.354796118794845 0.319656612154533
1.1185846956059344 13.058549714682957 1868.407787829294 30.692882733940642 0.3244269806710869
1.1452228379770157 13.063997950832896 1652.1085759118303 32.091881255815316 0.32930370278621857
1.1719854131981278 13.069006367491514 1462.0545228290753 33.553736977378435 0.3342845035375664
1.1988411058127026 13.073468488774362 1295.4126771384797 35.08299028061611 0.3393829363120437
1.225786777469962 13.077336478765837 1149.0180459793592 36.68166175617011 0.3445957463524832
1.2527821127569638 13.080493170938318 1020.134580625804 38.35480689983608 0.3499373905663006
1.2798241448221985 13.08293604819868 906.7135348756519 40.104666982091 0.3554044579280806
1.306868136447946 13.084520636397125 806.7206727013731 41.93671109862293 0.3610114955393617
1.333905554039688 13.08523437225859 718.5855873651817 43.85442188785501 0.36676042737090686
1.360915071401758 13.085030126204003 640.6193273657017 45.86249209531608 0.37265903142763046
1.3878445183206551 13.083775503671282 571.7954055400186 47.96625266650813 0.3787172528935191
1.4147018703292444 13.081485846299895 510.8053831908122 50.17045649699443 0.38494072449824573
1.4414240673157397 13.078030851733219 456.8748977740762 52.48033030481372 0.3913364539599375
1.4680190335878278 13.073434000219121 409.0090388393329 54.90228644299822 0.3979161134604325
1.4944279568179502 13.067569067316363 366.52109189951904 57.44251433115064 0.40468876327119163
1.5206401983554039 13.060422545930798 328.82744614071345 60.107641457840316 0.41166417368932867
1.5466234877410194 13.051937938290044 295.28207628017987 62.90477281582567 0.4188528834982455
1.5723394902610661 13.042056348977326 265.46073749314723 65.84153411289292 0.42626626320104266
1.5977637869293666 13.030729910343295 238.91563219364812 68.92611914159086 0.4339165835853418
1.6228504038222085 13.017909101232066 215.23609338831935 72.16734173879529 0.4418170902465898
1.6476028048410776 13.00356985799136 194.09541839391238 75.57469282005765 0.4499820847726933
1.671951884291508 12.987635951420621 175.23041658365972 79.1581033334576 0.4584257618399303
1.6958888177094795 12.970087928421215 158.35927206909116 82.92777668606874 0.46716144349761085
1.7193689800059095 12.950876987963603 143.27603753847217 86.89644363407682 0.4762106532415479
1.7423518297124418 12.929938785578809 129.7741013007742 91.07568178309602 0.48558773375002595
1.7648344746885904 12.90729218620623 117.6750878486583 95.47957910442182 0.49531460093862995
1.786761260109778 12.88285682502125 106.81689234037552 100.12180540279718 0.5054087850268812
1.8080998105066506 12.856601639268684 97.08185034578898 105.01888442146402 0.5158959820752395
1.8288100712444386 12.82846770500056 88.33040879418779 110.18735644538913 0.526798728314031
1.8488902875659603 12.798502054736854 80.46192618494946 115.64485638448053 0.5381404136151223
1.868267081655507 12.766564309215532 73.38699717740691 121.4115845908736 0.5499503409790829
1.8869456928621033 12.732747208022152 67.00735264359109 127.50896653228986 0.5622583212509674
1.904868637640047 12.69693399037257 61.25471989373272 133.9594347797283 0.575093625762251
1.9220115718586008 12.659116762711319 56.07354767578793 140.78867617902569 0.5884925674270041
1.9383276044488587 12.61922823401757 51.39071272044063 148.02437049240916 0.6024934230728881
1.953819336643544 12.577391394725812 47.15886636725158 155.69502514125435 0.6171319894435378
1.9684397654912336 12.533462135460843 43.33766813346272 163.8342742730147 0.6324558260726486
1.982155281550139 12.48746428614986 39.87878319111474 172.47588768047544 0.6485064863762072
1.994945410249305 12.439390917285928 36.745042065838724 181.65915928872448 0.665337156458003
2.006782474493387 12.389232320423766 33.90270000173373 191.42608710852966 0.6830022426172507
2.01763004676284 12.3369605851435 31.327181654417586 201.82270248713152 0.7015609746245522
2.0274676584887654 12.282577118728334 28.991704516134686 212.89895130203087 0.7210760224834892
2.036278242240167 12.226114439017365 26.86937462416001 224.71031582878786 0.7416177089282775
2.04402360260197 12.16752223420433 24.941413312594307 237.3179557880016 0.7632631614713694
2.050684216860429 12.106818871751038 23.187647657127528 250.788732918277 0.786094969546338
2.0562571392013576 12.044076597805581 21.593142177035638 265.1957662401657 0.8102013637440612
2.0607056181635652 11.979228786284848 20.14132889413158 280.620739749897 0.835681861460163
2.064012087940777 11.912335965652353 18.82081957348485 297.1534217605686 0.8626435664931754
2.0661745748485285 11.843438102918885 17.618700216038018 314.89418624486905 0.8912069640354907
2.0671676324283808 11.772550989196848 16.522875792676516 333.95241553554143 0.9214978475458887
