M[M_sun], R[km], Lambda[1], P_c[MeV/fm^3], rho_c[fm^-3]
0.24162668629717493 15.618656898711224 2160425.4255784233 3.5677272577965504 0.1711233750220791
0.25364420581755903 15.277273101380402 1723196.2285862714 3.784823517538715 0.17388822180853064
0.26604026019111354 14.981271562459863 1382939.5941818072 4.011409709129813 0.17666676051212973
0.27881561725004356 14.723497912230547 1116444.580989883 4.247741803232653 0.17945767182612046
0.29197034603238964 14.498392270763448 905839.082944185 4.494445007995195 0.1822675224248414
0.30550565788282447 14.301241125740887 738627.2582345566 4.751674661082091 0.18509201333559952
0.31942201980187374 14.128138726071466 605083.052948772 5.020113516656374 0.18793777362747727
0.3337217878493876 13.975933200979288 497676.5399899235 5.299984951004968 0.19080141303052248
0.3484020187826383 13.842019059571923 411001.5858408203 5.59201840368359 0.19368924481731042
0.3634649258171183 13.72396539115074 335712.72721907974 5.896380122814772 0.19659631291209628
0.3789185256831612 13.619994680471477 283296.69338391704 6.213934628615072 0.19953030726255638
0.3947502233325323 13.528454845408893 236415.52337481125 6.544939682086727 0.2024874123250309
0.4109764290897631 13.447875309017665 197863.85994341355 6.890097019486076 0.20547132805281065
0.42758446375031806 13.377045333010585 166070.7919072528 7.25011206308063 0.20848513376966682
0.4445796395712127 13.314925131452693 139800.84921950614 7.625244369954095 0.21152438542811952
0.46196122740366746 13.260571265749896 117978.85428387146 8.016441791312785 0.21459522704725506
0.47972583552926645 13.213149164879297 99807.86179128733 8.424409895235083 0.21769931474199872
0.4978833829642379 13.17197911282261 84641.41042513293 8.849590444533066 0.22083412931924046
0.5164222363525375 13.136395819477354 71938.04982334875 9.292854963432978 0.22400305339660515
0.5353406435333097 13.105843065366544 61275.16118138218 9.75508914851303 0.2272090187928649
0.5546467981254329 13.07981042159397 52298.36462231711 10.237102617012589 0.23045337649093167
0.5743297495037133 13.057840463403243 44729.02043135138 10.739367530275452 0.23373283565757755
0.5943876677610109 13.039517412437991 38327.74995131651 11.26312664213729 0.2370535598595138
0.6148246398740748 13.024501031147006 32900.81037477197 11.809318530855153 0.2404171764443316
0.6356294817497012 13.012428227966028 28291.068756251447 12.378922244063697 0.24382531843845875
0.6567996011389959 13.003025809084368 24370.09724239824 12.972628287717228 0.24727595325708263
0.678331589352178 12.995976254852446 21027.09447411265 13.591760492904521 0.2507738331721668
0.7002199830132497 12.991057008984058 18171.679409126657 14.237518017672654 0.25432161157644134
0.7224516331053943 12.988009564989866 15728.475779041477 14.911090605168264 0.25792127319624586
0.7450415939607508 12.986655408789183 13633.588827979687 15.613508841562725 0.2615727236542675
0.7679631819154003 12.98676080671079 11836.059525908378 16.346037146601105 0.26527784034042834
0.7912083029562089 12.988133044984906 10288.518189278013 17.110292477700302 0.26904132278466003
0.8147828878756097 12.990665980095338 8956.110976766005 17.90772995293776 0.27286560370795493
0.8386651730000118 12.994123215328067 7807.168628232906 18.739713193651408 0.2767517488728319
0.8628466512120821 12.99839654010852 6814.294424368053 19.607590113122253 0.280700269969596
0.8873264657573401 13.003355493660496 5955.178464995495 20.51344495719204 0.2847175124757451
0.912083543021121 13.008850394808938 5211.01069735502 21.459071942376788 0.2888064899154242
0.9371036174766131 13.014732446806132 4565.1834925624335 22.445952904731968 0.2929671053453414
0.9623871711976141 13.020945903412889 4004.4897029165813 23.476117908794908 0.29720319557757585
0.9879081465437892 13.027338200224309 3516.469247087142 24.55198715689196 0.30152084277857993
1.0136499557429433 13.03378803918843 3075.1758494566184 25.6754999680736 0.30592165616185824
1.039614136134628 13.040246378660326 2721.3633171079377 26.848623648186773 0.3104069403827711
1.065765314835049 13.04657828362415 2398.2286585294682 28.074452189337883 0.31498540883096715
1.0920969502867295 13.052702707751287 2115.6665088854934 29.35503607687333 0.31965747585628057
1.1185954872218522 13.058536725513385 1868.531928044318 30.693140138368726 0.3244278886818863
1.145226758795251 13.063993713996405 1652.0497571739945 32.09215526645468 0.32930464425978645
1.1719897802054258 13.06900601555793 1462.000730621955 33.55403080846103 0.33428549377860994
1.1988469563894029 13.07346613723685 1295.4229717666808 35.083305319023324 0.3393839780586493
1.2257919537473154 13.077329946303475 1149.0097278756455 36.68199708765756 0.3445968280799535
1.2527873802302276 13.08049521671223 1020.1277065096895 38.35516388531426 0.34993851467934844
1.2798303006073835 13.08293291036529 906.6553653711334 40.10504967922903 0.3554056418651748
1.3068739741991036 13.084527586620512 806.6951318190011 41.93711859199356 0.36101272745355606
1.3339115526769896 13.085233791033344 718.5703611215731 43.854858746310086 0.3667617259401619
1.360919766419674 13.08503296098644 640.5947574203731 45.862957403461486 0.37266038448051
1.3878504538034309 13.083774749790981 571.7703387070575 47.96674841188618 0.37871866394489506
1.4147073498101965 13.081482060497388 510.7957595748191 50.17098811582688 0.3849422141527999
1.4414306803390526 13.078031253857937 456.85184581788616 52.48089695314101 0.39133800976393945
1.4680254911748214 13.073431351604377 408.988177117629 54.90289062997339 0.39791773982310896
1.4944344759015569 13.067567904102 366.50774669936584 57.44315876917632 0.40469046494263355
1.5206467828649408 13.060422622225689 328.81614048553445 60.10832908076636 0.41166595578848336
1.5466301321823672 13.051936124218308 295.28003088092987 62.90550679896345 0.4188547515436854
1.5723462285862635 13.042053404497622 265.45200912416465 65.8423178950469 0.426268223144804
1.5977703585704626 13.030726010041374 238.90781003345228 68.92695644933563 0.43391864185016926
1.6228571629193334 13.017903451516478 215.22228879965303 72.16823661325184 0.44181925376695724
1.6476089633542645 13.003565330079237 194.08577689075082 75.57564964645606 0.44998436104001993
1.6719578891977502 12.987632405333718 175.22124566684454 79.15912187737457 0.45842813809123567
1.695895574327648 12.970081447859396 158.35259298331226 82.92886688540287 0.4671639487725055
1.7193756588211653 12.950871220627834 143.27033568071838 86.89761110111075 0.476213296979975
1.7423557118560702 12.929929693422176 129.77004627134968 91.07692700377066 0.4855905039076778
1.7648408675092115 12.907283846606534 117.67410950676722 95.48091407490172 0.49531753016194724
1.786767165712994 12.882849585661669 106.81472699994583 100.12323128549428 0.5054118620198815
1.8081062631219669 12.85659326880944 97.07927105441428 105.02040861058873 0.5158992186940405
1.8288163027517577 12.828459071445328 88.32420810101242 110.18898700625185 0.5268021373830531
1.848895753917132 12.798494274020937 80.45717594873102 115.6466087838169 0.5381440334674448
1.8682730858973062 12.766554242888613 73.38329083746089 121.41346201715517 0.5499541627309922
1.88695180757583 12.732735739954267 67.0051852027435 127.51097952655319 0.5622623613143919
1.90487562452761 12.69692059188755 61.25544617023828 133.96158747648627 0.5750978758540576
1.9220170527007026 12.659104036304049 56.07124664382379 140.79098833980242 0.5884970723954674
1.9383304489419049 12.619217757021776 51.38973657471053 148.02685596410626 0.6024982040013575
1.9538277325205018 12.577375112714469 47.16038223315986 155.6976909455375 0.6171370414095051
1.9684435998729628 12.533448331849087 43.336198322503414 163.83713656520476 0.6324611728582469
1.9821593409858735 12.48744791967421 39.87826462448054 172.4789728164017 0.6485121827423732
1.9949500311841915 12.439372834118616 36.74282869547757 181.66247845264817 0.6653432023611128
2.0067857018065416 12.389214324709034 33.90232606923695 191.42966185554238 0.6830086689828282
2.017634124608031 12.33694144009997 31.32743790229514 201.82655659506935 0.7015678152859655
2.027471202891865 12.28255677219222 28.99076016993939 212.90310130953486 0.7210832826733304
2.036280918600936 12.226093907232706 26.868164210433413 224.71480014961952 0.7416254601835915
2.0440268471135563 12.167500300084988 24.941416929128696 237.32279626949108 0.7632714149369632
2.050686399253404 12.10679576887742 23.1868372055924 250.79396453317557 0.7861037723615399
2.0562589649274625 12.04405149704744 21.591984815045876 265.2014385583235 0.8102108028110304
2.060707512780757 11.979203773911745 20.14080289742123 280.62687433253853 0.8356919236035067
2.0640132813884624 11.912308766367145 18.820281059088593 297.16007734185945 0.862654349727421
2.066174825674281 11.843410709640692 17.618219680263167 314.9014162718082 0.8912185378865835
2.0671686620419494 11.77252149354641 16.523524667309875 333.9602676959117 0.9215102494059674
