M[M_sun], R[km], Lambda[1], P_c[MeV/fm^3], rho_c[fm^-3]
0.24162668629717493 15.618656898711224 2160425.4255784233 3.5677272577965504 0.1711233750220791
0.25362147179825717 15.277852038598967 1723774.0502237382 3.784418040603949 0.17388316773414733
0.26599392859219995 14.982268691579838 1384230.6524539778 4.010557378275858 0.17665646059677093
0.2787436908005086 14.724866279260295 1117679.7262568355 4.246413847193708 0.17944226953725576
0.29187231874866715 14.499894341807492 907248.6585945616 4.49260664681489 0.18224705184643733
0.30538087941201725 14.302878858784869 740032.0394242732 4.749263551121179 0.18506596874634915
0.3192673878760358 14.129901483844126 606356.731329741 5.017111967190602 0.1879066313932782
0.3335350984993891 13.977766997362805 498937.2802133861 5.29631403065037 0.19076445295371006
0.3481839575511419 13.843862266281283 412162.3069337324 5.587669019126459 0.1936471633252457
0.36321298908572586 13.725848151590869 341685.7846822823 5.891254667722547 0.19654817355320814
0.3786305766522243 13.621799898141724 280307.9382174053 6.207971182879213 0.19947592781790144
0.39443029652327494 13.530204970319009 237243.55379919132 6.538144508962656 0.20242782783656202
0.41061506590433505 13.449532025857229 198634.0158574265 6.882339082271194 0.20540525820399672
0.42718268209773524 13.378633171685065 166760.357561643 7.241318689248018 0.20841238844149826
0.4441377104072496 13.31642212044216 140408.51814753877 7.615439929426488 0.21144633577728522
0.46147808628926773 13.261958871434409 118527.62112452599 8.005455461596059 0.2145102389048301
0.47920058853451136 13.214430033374486 100301.96763378172 8.412156159442874 0.21760718377924976
0.4973116027674188 13.173175782183712 85071.5581107361 8.83611453817722 0.22073655799941236
0.5158017400866683 13.137505387384019 72319.39651782872 9.27793905555733 0.22389804447526213
0.534674511421202 13.10682225364943 61615.186095211 9.738632289213152 0.22709634642297472
0.5539336919590335 13.080696849881509 52604.69615676069 10.21899773040154 0.23033280500884126
0.5735630124480123 13.05862196020583 44996.84621700674 10.719693308944056 0.23360652106231897
0.5935738631154532 13.040199216392255 38561.98144036985 11.241587576333169 0.23691898338659223
0.613955156232291 13.025068862125586 33112.636232051125 11.785787614835414 0.2402740692144651
0.634703325837887 13.012919452765685 28480.798273695393 12.35326455858157 0.24367339737884264
0.6558170688840667 13.003377154232282 24538.588509440942 12.944961641141004 0.2471178220504953
0.6772972409321715 12.996260518758985 21176.10459348927 13.561692528041728 0.25060642279950057
0.6991287581575059 12.99125750213869 18303.04545155515 14.204887821680492 0.2541445911706667
0.7213043059822751 12.988117260285492 15845.207793794209 14.87572693901577 0.2577342921628628
0.7438334602406491 12.986692280552973 13738.085726929687 15.575449980361336 0.2613775958239589
0.7666931523874736 12.986716541974271 11927.630984068084 16.30501832037264 0.2650733717795563
0.7898826717149655 12.988027875862969 10370.732536915826 17.0659841119752 0.26882586620621035
0.8133868204112039 12.990482811768356 9029.115405823706 17.859912978123862 0.2726387155815405
0.8372113180455544 12.99389760471255 7871.609452506531 18.68832356759866 0.2765144604104931
0.8613342130078697 12.998127350011776 6871.860947140406 19.55251618927338 0.2804531880065923
0.8857431385847047 13.0030124179318 6006.780153091178 20.45414622391681 0.2844576562321191
0.9104404818865934 13.008470368568915 5256.969393342025 21.395265767309155 0.28853329035122266
0.9354013200918714 13.014337742014979 4606.212944293566 22.37775041766451 0.2926832428793526
0.960611088672703 13.020500114622758 4040.795073944266 23.402975362041722 0.29690614196244297
0.9860737664181531 13.02688129563919 3549.0441356767324 24.473406580997487 0.3012086794545021
1.011758199381739 13.033322414752064 3120.9109986510275 25.591408382883937 0.30559581319596657
1.037646018160708 13.039773075852917 2747.6048412046825 26.75875301485704 0.3100674253130155
1.06374851411727 13.046107635903981 2421.3879476786224 27.978005907002558 0.314628612094551
1.0900162656311743 13.05222644433313 2136.4229114981367 29.252164089488904 0.31928658482905004
1.116453145430263 13.058091449043163 1887.1278103363745 30.58300166375266 0.32403936807588296
1.1430262719420188 13.06356746716105 1668.6786973128965 31.974153855552068 0.3288968823630504
1.1697249857762622 13.06860247917046 1477.1743364185265 33.42832185214154 0.3338618416346775
1.196527106184312 13.073100036641208 1308.9798561959235 34.94853283511384 0.33893832199126356
1.223414266111137 13.077010645750054 1161.1001372061833 36.53855157647959 0.3441340950657813
1.250359740998405 13.08023979260326 1031.0845424121121 38.20141212996204 0.3494515003181124
1.2773507813947345 13.082743370089124 916.5217018993138 39.941364073911615 0.35489925328615035
1.3043446971988666 13.084402096586727 815.6064892766585 41.762240365574264 0.3604825018452855
1.331341592776464 13.085236079991084 726.4811153701418 43.66803289347394 0.36620638288631674
1.3582918766896874 13.085077367889347 647.7953511278926 45.663977270377295 0.37208177728290914
1.3851862881799042 13.083947259888593 578.2263210971666 47.75404307784748 0.3781115103227282
1.412003443797653 13.081771391606008 516.6308842651482 49.9436839136755 0.38430528272893083
1.4387000617002224 13.078458763553417 462.0887361688739 52.23863122285677 0.39067283883770404
1.4652493641695112 13.073963162516943 413.7409068956144 54.64459300425641 0.39722244906849385
1.491635558613805 13.068259007718739 370.8313750710878 57.1676722953647 0.4039630288720694
1.5178257460617937 13.061264109407574 332.6830971494149 59.81407780381001 0.41090266532714065
1.5437800213754729 13.052936183186242 298.8099367877597 62.59132266155478 0.41805417306767045
1.5694803987409351 13.043232864465198 268.6199588109247 65.50694464015848 0.4254287917759252
1.5948891438921045 13.032082601552236 241.76138516406743 68.56903242451459 0.43303861163655283
1.619981095911721 13.019467426610383 217.82149342592845 71.78583359977362 0.44089472552485215
1.6447261402153905 13.005329782875894 196.4429611698753 75.16680520752604 0.44901172980872983
1.6690819078875472 12.989619704463816 177.35348114842157 78.72211110646685 0.45740522576735476
1.6930157828767418 12.972282510199834 160.30381147534638 82.46261526499066 0.4660916203015019
1.7165122362153726 12.95331868447461 145.0471581169076 86.39887875234861 0.47508391359101293
1.7395313875453193 12.932654325669107 131.38007303736 90.54392007874559 0.484402844134787
1.762031444403468 12.910258068197669 119.12756896497471 94.91071861618438 0.4940663940070623
1.7839823405612536 12.886079496192561 108.14681618467556 99.51382371523725 0.5040960633750485
1.8053633019117485 12.860114260121716 98.28831814804803 104.3677844468257 0.5145105265505631
1.8261177756579174 12.832274977290739 89.4278982007405 109.49007553657879 0.5253365924547131
1.8462490764042243 12.802620214083591 81.46683041696042 114.89837676812556 0.5365984443180452
1.8656828644691945 12.770998120000266 74.30271254017394 120.61191815275477 0.5483225131561299
1.8844174027559948 12.737478516520314 67.84325720466111 126.65163589640902 0.5605376655055156
1.9024230160281952 12.702028568271077 62.01970729693836 133.04034532625525 0.5732754127407919
1.9196443900880347 12.664566024395839 56.76808810210684 139.8029329281167 0.586570144645808
1.9360633883186487 12.625097677733653 52.03120257704511 146.96611360929663 0.6004578133066582
1.9516417572446454 12.583576296683622 47.74817113162959 154.5583604624662 0.6149752514773824
1.9663609749639066 12.540034641817515 43.87345399775349 162.612420387784 0.6301682343021408
1.9801952225127026 12.49445219866923 40.36763816676218 171.16243873335725 0.6460809403920109
1.9930891713234837 12.446739915530973 37.194860071155816 180.2456469229936 0.6627611116681252
2.005056208696835 12.397011201125755 34.31600291146821 189.90393243461773 0.6802644846856082
2.0160276041648997 12.345131255622862 31.709389331016975 200.18239804596953 0.6986490627656193
2.0259999278385883 12.291156103893691 29.341443753686537 211.12991087779622 0.7179760267179657
2.034954945793862 12.235117446896922 27.188663679529398 222.8010245736034 0.7383149631180659
2.042856321614293 12.176973405984949 25.235255998062886 235.255675896773 0.7597415884215852
2.049686212684889 12.116755537609793 23.454626818409167 248.55899894921274 0.78233577076423
2.055428329136816 12.05443409717076 21.843485190057304 262.78289654750176 0.8061850662006161
2.0600506510552647 11.990043234605036 20.371054693389354 278.0075656608855 0.8313878737353114
2.063541059357073 11.923610519852836 19.03294430761636 294.32055894627456 0.8580483082246182
2.06588837076539 11.855168693513198 17.81386060212672 311.8192869258331 0.8862819848175927
2.067084532153697 11.7847510686457 16.702983097925145 330.61216782051946 0.9162170696398857
2.0671074476350326 11.712383334389434 15.690618817226957 350.8187594555129 0.9479915695298005
