M[M_sun], R[km], Lambda[1], P_c[MeV/fm^3], rho_c[fm^-3]
0.24162668629717493 15.618656898711224 2160425.4255784233 3.5677272577965504 0.1711233750220791
0.2536462752507083 15.277233703946441 1723050.5069390535 3.784866981678109 0.17388876356806038
0.26604556340846885 14.981134050680055 1382916.1358688732 4.011501080404981 0.1766678646800665
0.27882253168820187 14.723394864398436 1116256.1714541353 4.247884173884368 0.17945932311113236
0.2919804944026576 14.498243065129726 905734.7976170531 4.494642114980434 0.1822697172568682
0.3055197859153922 14.301026799954126 738504.7022821046 4.751933198300889 0.18509480603098824
0.31943849587480755 14.127949355686324 604960.0537851008 5.020435389650344 0.18794111318402126
0.3337405400213529 13.975769856076424 497532.6874943092 5.300378635216825 0.19080537677729564
0.34842539699085984 13.841821684218619 410879.0641084924 5.5924848831655645 0.1936937581346226
0.36349068965171744 13.723794422293695 340526.1377311975 5.896929879340272 0.19660147634172465
0.3789484763762697 13.619822558838226 283205.48032168875 6.214574316619841 0.1995361404469254
0.3947851542783633 13.52825952118322 236306.04120984557 6.545668638525655 0.20249380428822839
0.4110149284884624 13.447677347300585 197782.13301000517 6.890929318990901 0.20547841626465468
0.42762761139896355 13.376878483900876 166004.43271781085 7.251055517760067 0.2084929387284431
0.4446264558526562 13.314762548214492 139733.1409163766 7.626296373224642 0.21153276005058896
0.46201135193049614 13.260403461952832 117918.648666027 8.017620695476623 0.21460434682406543
0.47978312810600027 13.213017665080107 99757.6590428485 8.425724895495442 0.21770920170561994
0.4979445829868621 13.171852623238635 84593.70033373471 8.851036693124993 0.2208446007769805
0.5164891691317609 13.136278446964276 71899.53560661121 9.294455868913085 0.22401432387098993
0.5354115330187685 13.105742985585305 61243.681348690676 9.756855568177482 0.22722111263690814
0.5547247622262738 13.07972871664411 52270.582000047274 10.239032955541521 0.2304661505200651
0.5744125707499557 13.05775394198147 44701.002298921216 10.741479568747359 0.23374639559879484
0.5944746979118365 13.03944404031677 38302.10688362115 11.26543903546093 0.23706800773484565
0.6149182336760891 13.024434547217936 32878.03706694875 11.811844943067424 0.24043254124580793
0.6357279773240647 13.01238315041671 28271.182686708282 12.381677191816033 0.24384163068852563
0.65690466373707 13.002972163620138 24352.296545621015 12.975599119621691 0.24729293331400157
0.6784425570179996 12.995942457654625 21013.849481245168 13.594989403068007 0.25079181087888025
0.7003368905355329 12.991043926607395 18157.75904219025 14.241022323546682 0.25434062260683565
0.7225776645940137 12.987983977723037 15717.158592777856 14.914888737073847 0.2579413553513473
0.745172583807808 12.986646910342328 13622.452093146865 15.617583349620919 0.261593549836733
0.768098716285453 12.986767587715647 11826.462646751068 16.350443218838016 0.26529980350544824
0.7913514862423762 12.988142371886234 10280.691232468746 17.11505223324295 0.26906446786407545
0.8149317252099025 12.990692181223881 8948.248340846889 17.912866977632326 0.27288997852281577
0.8388206980057481 12.994157016396986 7800.485065784582 18.7452047004601 0.2767769795052359
0.8630083454307466 12.998426011225622 6807.759017850066 19.613507519740793 0.28072681764118035
0.887495389923414 13.003397477323675 5949.62065134332 20.519816751806506 0.2847454346677081
0.9122592137103517 13.008892468336555 5206.1502752338165 21.465928564307266 0.288835847984942
0.9372865741725077 13.014786084675604 4561.1186586334225 22.453265788048164 0.29299747889931255
0.9625760292846005 13.021002935814089 4000.3444022905787 23.483978845235356 0.2972351211761723
0.9881038748071742 13.027383117430384 3512.847605938131 24.560433157580334 0.30155439472981005
1.0138534380779032 13.0338465036949 3088.9591685636638 25.68449833470886 0.3059563825916913
1.0398225259176062 13.04030297184843 2718.7342270893832 26.858284413115005 0.31044343701306043
1.0659530213687536 13.04660918483348 2396.0983518673493 27.95195081270691 0.31465277670787395
