M[M_sun], R[km], Lambda[1], P_c[MeV/fm^3], rho_c[fm^-3]
0.24162668629717493 15.618656898711224 2160425.4255784233 3.5677272577965504 0.1711233750220791
0.2536437415830892 15.277272095079281 1723202.2915874782 3.7848154395234213 0.17388812111996696
0.2660394962215038 14.981276518105714 1382959.6525139436 4.011392727511476 0.17666655529929398
0.2788142006313023 14.723523867630359 1116440.044393335 4.247715343478157 0.1794573649328423
0.2919676294497065 14.4984683915884 905898.1103047364 4.494408375761345 0.18226711451641558
0.305504664571514 14.30120390916069 725421.022700822 4.75162661251341 0.18509149431935568
0.3194197939952668 14.128151843120389 605110.0464267479 5.020053697795971 0.18793715298371264
0.33371687692836255 13.975971419833925 497684.42032455717 5.299911786963135 0.19080067639002232
0.3483976709049724 13.842054765081418 411022.50460511656 5.591931711768588 0.19368840604918464
0.36345875074745554 13.724041861530413 340663.9568098968 5.896277955347326 0.19659535333362108
0.3789129261207965 13.62002324271996 283321.58758036955 6.213815749201256 0.1995292232254425
0.39474498025856536 13.528472581574729 236419.01939999443 6.544804214134609 0.20248622445409906
0.4109688037297967 13.447920976906293 197880.1463330304 6.889942347766963 0.20547001080354524
0.42757709057638876 13.377063580814811 164081.2708175022 7.249936736150504 0.20848368333490633
0.4445709741866849 13.314966667888639 139812.98560977762 7.625048872380614 0.2115228291417301
0.46195143031106245 13.260592083690447 117988.51555044488 8.016222713118296 0.21459353230030356
0.4797158866747248 13.213198159535597 99820.34621995075 8.424165528055148 0.21769747744242465
0.49787176025663066 13.172008451384908 84644.77679600079 8.849321689372516 0.22083218341704786
0.5164108142439873 13.136402246554667 71941.68003733917 9.292557470955146 0.22400095903101472
0.5353277454370821 13.10586170011914 61281.62717724766 9.754760901612237 0.22720677144083085
0.5546327344094022 13.079842129587888 52304.25141153844 10.236741476014071 0.2304509714327631
0.5743149902041137 13.057860898488864 44735.41615416035 10.738975064328434 0.23373031590462698
0.5943707834992368 13.039536569596626 38331.52560598921 11.26269694906721 0.23705087512943607
0.6148071317573542 13.024522442209133 32905.44706186301 11.80884907220453 0.24041432135246135
0.6356110816644411 13.01243718086329 28294.865866859716 12.37841032300555 0.2438222873158874
0.6567794104883032 13.00303838109087 24373.111177991374 12.972076255076454 0.2472727980648796
0.6783101538159417 12.995990349147746 21029.683551279195 13.591160509621496 0.25077049262599205
0.7001982560118163 12.991066582475574 18174.184460379245 14.236866866688363 0.25431807905057213
0.7224327846019035 12.98799888899268 15732.042647237957 14.91038486271968 0.25791754166988856
0.7450180578305677 12.986643269396778 13635.658635585725 15.612751749865861 0.26156885390371193
0.7679376081967116 12.98676212269296 11837.67572361461 16.34521845296133 0.26527375935796954
0.7911812587905006 12.988129421599492 10289.947189618244 17.109408073203277 0.2690370222250755
0.8147541188029113 12.990663090035973 8957.54543380406 17.906775456250678 0.2728610746894245
0.8386364505039985 12.994128307160066 7808.667814671636 18.738692838362994 0.2767470608682276
0.8628165635034181 12.998397675016411 6815.343829656116 19.60649063202726 0.2806953372913292
0.8872905560920303 13.003341281423449 5956.224619154039 20.512261058440444 0.2847123244478492
0.9120500196111386 13.008839284091195 5211.883308633824 21.45779797174213 0.28880103514209193
0.9370700249660543 13.014730064897426 4566.013875888548 22.444594169132692 0.29296146193120876
0.9623468198945443 13.020926867790052 4004.9889348907413 23.474657356948057 0.2971972638425535
0.9878710344841978 13.02732538259835 3517.1393401440027 24.550417914032042 0.301514608921652
1.0136120821669679 13.033787182556225 3092.304305124065 25.67382810855325 0.3059152041339872
1.0395748151877615 13.040233984691719 2721.833762446107 26.846828733064978 0.3104001595166505
1.0657241374851474 13.046562304266121 2398.6806682849 28.072525816592673 0.31497828234053155
1.092056202297121 13.052696249822683 2116.129459511785 29.35298507393683 0.3196500935050314
1.1185529711512576 13.05853398733641 1868.8958790350293 30.69094001823875 0.3244201276155636
1.1451828730810114 13.063988615387252 1652.404095283898 32.089813209889435 0.32929659718411153
1.1719445185664212 13.068998839540697 1462.285680080925 33.551519343332004 0.3342770298821823
1.1988005131221267 13.073453953774328 1295.6523867309777 35.080612591700465 0.3393750739393926
1.2257450582151481 13.077329119192907 1149.2409763924702 36.67913091224721 0.3445875822417542
1.2527389929311168 13.080489155150655 1020.3402777540126 38.352105180113966 0.34992886286579256
1.2797810203630486 13.082936019210672 906.8498669526914 40.10177866350593 0.3553955224353033
1.3068230307037645 13.084519529488677 803.4986616775628 41.93363563989971 0.36100219796171146
1.3338597628350795 13.085236251617939 718.734689086835 43.85112480816215 0.3667506267449356
1.3608665477320194 13.085035532876947 640.7386014998963 45.858980303111096 0.37264881961293933
1.3877969509564574 13.083777916617148 571.9033652554889 47.96251116197639 0.37870660336383777
1.414653739568472 13.081487197181328 510.9042747971068 50.16644425358001 0.38492948175004016
1.4413768110226377 13.078039935413843 456.95651341195986 52.47605369181486 0.3913247119829511
1.4679705229665545 13.073441975726423 409.102584389745 54.897726524162515 0.39790383897901027
1.4943789715216738 13.06758250108858 366.60630028383434 57.437650636369774 0.40467592043730993
1.520591332872722 13.060438134966557 328.9035193450559 60.102451845820596 0.4116507238713497
1.5465729994442199 13.051954528108642 295.34509700176494 62.89923332305529 0.4188387850487357
1.5722897579605126 13.042077667648835 265.5118952547056 65.83561878738007 0.4262514712014082
1.59771293537833 13.030753132769133 238.96570199741467 68.91979985966177 0.4339010495647735
1.6227997112785504 13.017938103415 215.27274665185033 72.16058800302955 0.4418007618725053
1.647552186303138 13.003600583413407 194.13678150395222 75.56747153620076 0.44996490550953
1.6719009323475766 12.987671871023322 175.26456424635404 79.15041627042473 0.45840782800982033
1.6958382228193305 12.970129342468082 158.39615118791863 82.91954884535491 0.4671425359436138
1.7193188618229827 12.950920921734728 143.30692327749188 86.88763266146425 0.47619070072366143
1.7423043053170246 12.929985586608389 129.7970294852924 91.0662840110639 0.48556682716645005
1.7647849622214555 12.907342877324993 117.702416977172 95.46950400200986 0.49529249391427704
1.786713144180328 12.882911512469846 106.84979182152998 100.11104419736265 0.5053855628124153
1.8080514710429603 12.856663834705255 97.10229083830724 105.00738131139913 0.5158715551969052
1.8287641967066235 12.828534034329072 88.35050145191933 110.17505056468195 0.5267729999909321
1.8488446184737468 12.798575468393615 80.48062176993987 115.63163101220476 0.5381130945597257
1.8682314779618683 12.766673836933322 73.39550491124488 121.39741566456324 0.5499214982374472
1.8869019891446879 12.732831199893822 67.02141511887822 127.4937745032104 0.5622278309698242
1.904825228869852 12.697023621571972 61.268056287699174 133.94318844577717 0.5750615504545895
1.921969721198792 12.659214718105305 56.08602166971451 140.77122640964063 0.5884585686404301
1.9382855329237794 12.619334032728197 51.401463084711146 148.0056127918219 0.6024573417025547
1.950876391525551 12.579534282229288 47.71716901028532 156.16790585308948 1.0054125113238912
1.9556531095509655 12.536782405663834 45.37945226076499 165.9736000027738 1.423017239798468
