M[M_sun], R[km], Lambda[1], P_c[MeV/fm^3], rho_c[fm^-3]
0.24162668629717493 15.618656898711224 2160425.4255784233 3.5677272577965504 0.1711233750220791
0.2536412806223386 15.277387085869842 1723183.826752952 3.7847873755869768 0.17388777131653768
0.26603702926888734 14.981298917930886 1383220.4842569856 4.011333731853191 0.17666584237158048
0.2788084719215866 14.723661923573776 1116544.0621875976 4.247623420530126 0.17945629876517008
0.291962443848196 14.498488811839362 905977.5340824055 4.494281113754636 0.1822656974244349
0.30549447437370986 14.301353042389541 738755.0731871017 4.751459690732064 0.18508969124554214
0.3194087712638245 14.128288103870064 605218.5606238417 5.019845887033647 0.18793499686684592
0.3337044464986596 13.976115905607156 497786.04999161203 5.299657616633667 0.19079811731654941
0.348383005853175 13.842173026864968 411094.8340414019 5.591630547664812 0.1936854922036332
0.3634430570918515 13.724117272629979 340746.26862790494 5.895923032004941 0.1965920198184796
0.3788937073956102 13.620128925251151 283371.7638078367 6.213402772135532 0.19952545737185987
0.3947218571985119 13.52861032218463 236474.90901818746 6.54433361251274 0.20248209791362692
0.41094397660756116 13.4480319992527 197932.73877060998 6.889405037470141 0.20546543484358398
0.4275473249785464 13.377213471988153 166140.38994432974 7.249327675851029 0.20847864473513758
0.4445412324871313 13.315042759502687 139851.18519244716 7.6243697458177495 0.21151742285761274
0.46191819483903623 13.260683702829319 118024.43239217624 8.015461675798637 0.21458764506136377
0.47968152426959665 13.213242524623634 99852.31338216862 8.42331664640717 0.21769109503914663
0.49783221084980495 13.172092547203313 84680.88311285125 8.84838809364901 0.2208254237851149
0.5163666105398874 13.136496913253401 71969.70183664015 9.291524054123757 0.22399368371209571
0.5352822645534958 13.105936794264471 61305.61684605563 9.753620657905275 0.22719896472884685
0.5545833900616414 13.079886947774355 52324.579310264955 10.235486974011364 0.23044261693880788
0.5742613024448923 13.05791112709933 44350.95400288144 10.737611754984703 0.23372156303633984
0.5943154683150366 13.039577946336212 38349.08523749148 11.261204332294339 0.23704154923282833
0.6147471036568362 13.024559680439479 32920.23474256999 11.8072183317159 0.24040440372946006
0.6355438419433669 13.012484714461365 28310.540485421767 12.376632092547558 0.24381175828139565
0.6567112970351928 13.00305516843483 24384.894116173524 12.9701587004737 0.24726183810910052
0.6782392403251584 12.996009811291218 21039.92660666957 13.58907640419255 0.25075888888532893
0.7001226015075962 12.991080554834026 18183.239592216247 14.234605037589345 0.2543058085173214
0.7223510723152288 12.988016250832771 15738.408774982321 14.907933419305019 0.25790457996447663
0.744934991342973 12.986645888576806 13642.935109787672 15.610121953703883 0.2615554121301446
0.7678495347533795 12.986747550807978 11843.065271113193 16.342374695408054 0.2652595839398055
0.7910898258969296 12.988116508997203 10295.735796284791 17.10633608436871 0.26902208418363566
0.8146588351224121 12.99065385878855 8962.565552069285 17.90346002026613 0.27284534318274284
0.8385360337158972 12.994114208750524 7812.490024006692 18.735148659565223 0.2767307772004592
0.8627118460870543 12.998374093258724 6819.474989545166 19.60267163352669 0.28067820385357345
0.8871816650760717 13.003330489996827 5959.858936941873 20.50814886260363 0.2846943041680863
0.9119367632769023 13.008815969500944 5215.041628060504 21.453372942610116 0.2887820884487795
0.9369509320966107 13.014705442991781 4568.666452181817 22.43987473819514 0.2929418601019307
0.9622238640914929 13.02090450774809 4007.4627323812683 23.469584307171214 0.2971766606800598
0.9877440781539707 13.027292333036506 3519.3016693078735 24.5449673712643 0.3014929565027299
1.0134806353617314 13.033759273978657 3094.4105881712917 25.668021169009155 0.30589279403593317
1.0394393642869149 13.040205194119165 2723.6191977537906 26.84059441655709 0.31037660739149425
1.0655884323104434 13.046543056063673 2400.1478784790156 28.065834945853613 0.3149535299002542
1.091910383915905 13.052663261595805 2117.417570181384 29.345861359899065 0.3196244525084781
1.1184050533624195 13.05849863767146 1870.1943797721062 30.683298424821853 0.3243931713996226
1.1450304450353277 13.063959542448222 1653.348166711813 32.081678674586755 0.329268647722031
1.1717885438014888 13.06897543030104 1463.4173056452832 33.5427964652574 0.3342476328837045
1.1986387000556817 13.073431414454937 1296.5470142501902 35.071260208905336 0.3393441481449258
1.2255812312439052 13.077307227199702 1150.0323733358118 36.66917616090656 0.3445554697548916
1.2525718041526668 13.080476485632584 1021.0778768361765 38.3414335463033 0.34989505746933514
1.2796099818390736 13.082917022500556 907.5460886310096 40.09041796200666 0.3553603762202297
1.306647681047125 13.08451281542933 807.4848442363291 41.92153891880636 0.360965627741201
1.333681293687342 13.085229184765023 719.229266905316 43.838156469250904 0.3667120781349604
1.3606858521553198 13.085036144549687 641.2309078187168 45.845167515007134 0.3726086539014584
1.387612714638036 13.083789728405613 572.3435059818714 47.94779493753704 0.3786647162385828
1.4144655183515693 13.081512380400294 511.30127602092 50.15066325754019 0.3848852616600349
1.4411937364783407 13.078085859555122 457.30100298858804 52.459232971698434 0.3912785285876906
1.4677781385441682 13.073481977876872 409.4132946946807 54.87979161467816 0.39785556142820155
1.4941848312123975 13.067626388699704 366.9004673542001 57.418521041177314 0.4046254077665216
1.5203950960974293 13.06049531902051 329.1644214848299 60.08204049762752 0.4115978241715535
1.5463768253430297 13.052024310465661 295.5781234990316 62.87744598984916 0.41878333455355626
1.5720906362090268 13.04215952800474 265.73173253671615 65.81235341879783 0.42619329328325034
1.5975146377296439 13.030848771518412 239.16659543816002 68.89494586676967 0.43383995362996264
1.6226007646617548 13.018048571358316 215.45278243041693 72.13402546395828 0.44173654214439684
1.6473526244769277 13.003724088452953 194.2890535256427 75.53907031914567 0.44989733968721696
1.6717012194207892 12.98781283098543 175.41263708456955 79.12018332727494 0.4583372948993392
1.6956400781781793 12.970285354785648 158.52403859584095 82.88718927666777 0.46706817374901716
1.719106286932094 12.951057211855735 143.43702786494774 86.85297992894792 0.4761122293339807
1.7421089184724965 12.930179766680066 129.91774024596168 91.02932368926842 0.4854846040550605
1.764594781967256 12.907560453973266 117.79901026565949 95.42988012865631 0.49520555028855834
1.786520690834948 12.883140188288555 106.9336904914653 100.0687222735903 0.5052942339369992
1.8078616744071658 12.856908538935372 97.18396168451771 104.9621419281651 0.5157754892717823
1.8285867696024658 12.828824171884147 88.42523912181859 110.12652066965326 0.5266713187317599
1.848661204398261 12.798860485076661 80.55042153060623 115.57961915342759 0.5380056560074047
1.868051937914998 12.766983475407647 73.45915762152201 121.34169349405317 0.5498080683181861
1.886727992776536 12.733164666980624 67.07801324601729 127.43402925502231 0.5621079227334265
1.9046576547901124 12.697375552740281 61.32163448125428 133.87929742923023 0.5749354097499413
1.9218064082199457 12.659594338183096 56.13291297614478 140.70260330232952 0.5883248647313392
1.938134691780981 12.619766617270574 51.44676384526548 147.93184675819265 0.6023154490667798
1.9536299126368966 12.577923186745055 47.21801197842409 155.5957892119105 0.6169439274237746
1.9682591310973965 12.534034636727606 43.38295522028072 163.72757777659234 0.6322562929454756
1.981986239761832 12.488073086484457 39.92046451608523 172.3610440736715 0.6482944402129839
1.994785876762165 12.440030597276165 36.78209117635111 181.53560519736493 0.6651121009674171
2.0066275510709217 12.389894274420108 33.941580128604556 191.29302037560475 0.6827630269555762
2.017491365226257 12.33767449835773 31.359175311701325 201.6792382517903 0.7013063397584014
2.0273431075177943 12.283328952872601 29.020420394643384 212.7444740754587 0.7208057738176802
2.036165052534795 12.226900479981722 26.897379607164517 224.54339616132955 0.7413291843092822
2.0439233572882465 12.168350958173656 24.967795337803413 237.13778066072402 0.762955946328192
2.050597759244652 12.107683692166766 23.21052873884701 250.59369900904233 0.7857663264578478
2.05618065152006 12.044956383319848 21.613819926594203 264.9846329035048 0.8098500256052691
2.0606496872668405 11.980171347096226 20.161260174975013 280.39231669037576 0.8353070547673134
2.0639786280671655 11.913330566692792 18.83967260004848 296.90569550226746 0.8622422055668604
2.0661511760530535 11.844460053743218 17.63539174098135 314.625082094959 0.8907761812201974
2.0671625875625947 11.773614265644268 16.539351820329095 333.66015905473216 0.9210362517797334
