M[M_sun], R[km], Lambda[1], P_c[MeV/fm^3], rho_c[fm^-3]
0.24162668629717493 15.618656898711224 2160425.4255784233 3.5677272577965504 0.1711233750220791
0.2536444949352763 15.27724717339486 1723168.3501725553 3.7848295612890333 0.17388829714096274
0.2660403501645301 14.98125764318451 1382944.487180479 4.0114224143463 0.17666691404717286
0.2788171028486279 14.723469687467826 1116340.173447541 4.2477615998010165 0.1794579014364807
0.2919713275037487 14.498384662606167 905842.639097185 4.494472415442575 0.1822678276131289
0.30550773361338857 14.301172611725846 738628.9168911319 4.751710610075832 0.1850924016533416
0.3194247905288102 14.128108197251205 605060.9150510358 5.020158272057721 0.18793823798204023
0.3337227012152493 13.9759571492765 497662.676391434 5.30003969116717 0.1908019641731255
0.3484052679846834 13.841991644045377 410984.50796095503 5.592083265332426 0.19368987237160573
0.3634691951222603 13.72397059234412 340635.5242822274 5.89645656323422 0.19659703085669225
0.37892267632679455 13.619964409044123 283289.2550746345 6.214023572915986 0.1995311183274848
0.39475587112960525 13.528422229243914 236397.60494905114 6.545041037975014 0.20248830107924606
0.4109814272904147 13.447854068742577 197850.75882881647 6.8902127437290455 0.2054723136090256
0.4275904368693241 13.377018995146724 166076.01471910666 7.250243241705986 0.2084862189768162
0.44458620226733464 13.314915474361232 139793.97249796582 7.625390640446546 0.21152554983529107
0.4619685171728395 13.260547299730796 117974.28112542913 8.016605705105682 0.21459649505296172
0.47973416270294694 13.213125467579784 99804.05198082623 8.424592730604514 0.21770068940837767
0.49789254149441137 13.171956253694802 84633.27321494355 8.849791527376928 0.22083558524494612
0.5164314243426205 13.136384828146356 71931.90453686217 9.293077548063145 0.22400462040627805
0.5353502739275496 13.105843769327524 61269.989325165756 9.755334744231492 0.22721070027115486
0.5546586782140557 13.079804375545732 52301.13630131676 10.237372824838205 0.23045517596964185
0.5743420304302587 13.057822643525306 44724.839806265074 10.739661176176083 0.23373472095521972
0.5943995289719908 13.039505793424544 38324.356855354614 11.263448142356863 0.23705556859870364
0.6148384024852598 13.024498450212318 32897.7082043234 11.809669784817194 0.2404193126544751
0.6356428570501218 13.012424413128375 28288.691842246462 12.379305269698426 0.24382758636166363
0.6568144634714356 13.003010934722722 24368.02150883728 12.973041326100203 0.24727831401510533
0.6783469920157935 12.995990628042557 21025.47080184344 13.592209409603194 0.250776332620073
0.7002359871486676 12.99106368025236 18170.239939574145 14.238005219904109 0.2543242546723249
0.7224696140829777 12.988008410995306 15726.401567774954 14.911618654826265 0.25792406519383754
0.745060472565851 12.986649175908722 13631.741666481612 15.614075312719885 0.26157561907906773
0.7679817666187805 12.98676288241189 11834.6002041648 16.346649710916555 0.26528089381990444
0.7912275134452778 12.988136302856278 10287.201991747728 17.110954209767474 0.26904454056362137
0.8148021793120112 12.990678572675352 8954.776849320402 17.90844413120267 0.27286899243275575
0.8386866996183301 12.994140325745182 7806.421414749058 18.7404766503533 0.27675525656135397
0.8628687665466876 12.998401381164227 6812.9373182923455 19.608412775673806 0.2807039607376387
0.8873502117471525 13.003360853147838 5954.440059988255 20.51433078538751 0.2847213943122475
0.9121073881108269 13.00885546988111 5210.443491194343 21.460025167181943 0.28881057134799837
0.9371286681866772 13.014742951513353 4564.380267202124 22.446969555205676 0.2929713279326162
0.9624136113739846 13.020966381585206 4003.9814456553554 23.477210744012773 0.29720763390610855
0.9879351817706759 13.02733841565104 3515.972275748722 24.55316132117034 0.30152550717585597
1.0136781925319336 13.033801929225332 3091.487562946092 25.676750916177962 0.305926483811512
1.0396436670935685 13.04025455149581 2720.9489330001666 26.849966674246822 0.3104120140933879
1.0657955024325545 13.046579839235713 2397.7248096902244 28.075893580552545 0.31499074116383513
1.0921283463421319 13.052713242572704 2115.2908871063064 29.35657072444295 0.31966299964525274
1.1186276055314994 13.058550000062747 1868.2388716407165 30.69478636570558 0.32443369585549
1.1452586173648196 13.064005456644791 1651.7762822310292 32.093907700331314 0.3293106654499788
1.1720238294297851 13.069014087770789 1461.8067659314015 33.555910006173065 0.33429182686865294
1.1988811276136295 13.073475187412853 1295.1353420110117 35.085320150723895 0.33939064056086093
1.2258273692906414 13.077336851435053 1148.8526355186189 36.68414170612712 0.34460374628715656
1.2528241990132407 13.080501553488443 1019.9828310831543 38.35744699458304 0.349945703971562
1.279867673214346 13.082941649812911 906.5306922165057 40.107497231151804 0.3554132137731496
1.306911653808744 13.08452109964178 806.6469785529506 41.93972473175205 0.36102060620887444
1.3339504286428918 13.085236023221173 718.4695276610361 43.85765269526367 0.36677003100137595
1.3609587132936947 13.085032851084314 640.4813380339124 45.86593330698123 0.3726690380036995
1.3878904535918892 13.083769155597306 571.6902269214161 47.96991898187733 0.37872768841057214
1.4147401546450367 13.081466044238772 510.73905507374775 50.174388121344684 0.3849517413429491
1.4414721634757854 13.078024860829078 456.78376712031786 52.48452099640094 0.3913479600289196
1.4680668191180466 13.073423518186639 408.912084561918 54.906754759080194 0.397928141363716
1.4944762923730326 13.067556368125967 366.44263116488764 57.447280332213516 0.40470134813983333
1.520688280094697 13.060409233317966 328.7616031409673 60.112726842193176 0.41167735338246164
1.5466723662922994 13.051919393855412 295.21899843085725 62.91020106762635 0.4188666988306434
1.572388520845107 13.042037052599042 265.4063262824566 65.84733066509966 0.42628075819340394
1.5978131014234271 13.030705161299647 238.87197989261946 68.93231155551894 0.43393180573975837
1.6229002975187294 13.017879146427203 215.18589536972573 72.17395990216119 0.44183309084995065
1.647653029869025 13.003538048241575 194.0543242494866 75.58176916562908 0.4499989192311103
1.6720013028979752 12.987601036982763 175.192835810305 79.16563612730012 0.45844333576178414
1.6959393194131829 12.970049272331591 158.33222445429243 82.9358394282644 0.46717997165569397
1.7194186435233625 12.950834771121455 143.24748507903323 86.90507783278348 0.47623020545351186
1.7423968651069264 12.929881778830445 129.7576855094618 91.08489103211018 0.48560822093927974
1.7648822304164153 12.907240886438185 117.65302656345621 95.48945212714042 0.4953362645550134
1.7868095761189473 12.882800488631835 106.80093952691968 100.13235079617051 0.5054315415282821
1.8081471603452342 12.856539060028693 97.06261438434858 105.03015687290396 0.5159199191495001
1.8288563345216924 12.828400479158297 88.30700399077773 110.19941560587272 0.5268239408107719
1.8489356296111166 12.798430533316981 80.44472057636695 115.65781664659642 0.5381671850444111
1.8683113682403343 12.766488788425008 73.3720165062417 121.42546953638367 0.5499786056398764
1.8869889582605568 12.732665037437535 66.99461683842371 127.52381327152168 0.5622880545862119
1.9049121026318652 12.696844695785428 61.24253667348984 133.9753555944218 0.5751250583938251
1.9220520300083475 12.65902389548724 56.06151696779231 140.80577637555797 0.5885258851127251
1.9383650716192071 12.619130918669203 51.379894461466044 148.04275248371363 0.6025287817477233
1.953859810163704 12.577283910183011 47.151949092465685 155.71474085964707 0.6171693527034632
1.968475429467536 12.533348267288204 43.33061536654306 163.85544320491027 0.6324953698133555
1.9821885138739541 12.487342222974034 39.87008105141753 172.4987047577337 0.648548615614597
1.9949767220389854 12.439263236538473 36.73604563889159 181.68370723112525 0.6653818708754625
2.00681190212451 12.389098421745881 33.89580294353301 191.45252534097366 0.6830497709447942
2.0176576685801186 12.336819205260866 31.32054820503159 201.851206874759 0.7016115671008649
2.0274916540047445 12.282430072794902 28.984902414759667 212.92964416676395 0.721129717814044
2.0363003536231825 12.225959310949573 26.863595256886658 224.74348128795003 0.741675036213997
2.0440438880959806 12.167359135806555 24.93725562632475 237.35375542839006 0.7633242031468427
2.0507010391807334 12.106647152273824 23.182622863435885 250.82742540691913 0.7861600742671219
2.05627257946312 12.043895761697923 21.589937928244172 265.23771821051974 0.8102711742600883
2.060716072941449 11.97904175515122 20.137919603332982 280.6661106722462 0.8357562803328054
2.0640205850689815 11.912142153809635 18.817561140128934 297.2026460522837 0.8627233186658173
2.066179146717407 11.843234625298619 17.615106759939952 314.94765921790645 0.8912925637479993
2.067170364221824 11.772336489777572 16.52091654331607 334.01048990390234 0.9215895713717669
