M[M_sun], R[km], Lambda[1], P_c[MeV/fm^3], rho_c[fm^-3]
0.24162668629717493 15.618656898711224 2160425.4255784233 3.5677272577965504 0.1711233750220791
0.25364517768073314 15.277278002330153 1723088.1890540004 3.784853631599012 0.17388859716576474
0.26604320639944984 14.981217045363598 1382859.0560247921 4.011473015415007 0.17666752553122547
0.27882086440254267 14.723398879119447 1116378.1148572518 4.247840444028452 0.17945881591070323
0.29197770153094715 14.498276592392017 905783.685021359 4.494581572264909 0.1822690430996796
0.30551491759016536 14.301110780151834 738517.9331285014 4.751853786454551 0.185093948231488
0.31943419432103753 14.127990076781783 604991.6313802862 5.020336523192817 0.1879400874063655
0.3337354519195575 13.975789260900825 497578.5293911164 5.300257710601902 0.1908041592670736
0.3484182141561324 13.841882340349787 410916.66015901614 5.592341597947882 0.1936923718107251
0.36348377993925024 13.723836850681248 340564.294128877 5.896761013632794 0.19659989031926423
0.3789396670324122 13.619863950140726 283226.53450055904 6.214377826150322 0.1995343486904333
0.3947750917590059 13.528327508374486 236344.24829807907 6.545444726777492 0.20249184088468694
0.4110029398630031 13.447735217535065 197808.9869270146 6.890673662331638 0.20547623898526224
0.42761343824604725 13.376946894748707 166030.38173055495 7.250765716231136 0.20849054127466402
0.4446122197375807 13.314809845018974 139758.21282778814 7.625973227324631 0.21153018760144274
0.46199515270579483 13.26045849530333 117929.81628748593 8.01725856741301 0.2146015454707254
0.47976563128581606 13.213066352351959 99773.8073372107 8.425320960360397 0.21770616467809537
0.4979257422631943 13.17189477451561 84605.86044352454 8.850592439893143 0.22084138419376712
0.5164689959841526 13.136305726816452 71911.55133424464 9.29396410639832 0.22401086183222815
0.5353893012258881 13.105777397550353 61248.942065347095 9.756312960796595 0.22721739765955978
0.5547006783947924 13.079767306111465 52281.0809452927 10.238441771371116 0.23046224945146185
0.5743872614668181 13.057780405096247 44707.874698304746 10.7408307887078 0.23374223022997398
0.5944466921615733 13.039476901946534 38310.55490550117 11.264728706676035 0.2370635695877433
0.6148887972455452 13.024464275354335 32886.08397067681 11.811068867575111 0.24042782141196128
0.6356972303521825 13.012420512894263 28277.086239459943 12.380830909682437 0.24383661978921597
0.6568718822729919 13.002994483622523 24163.991905126062 12.974686517218759 0.24728771725289664
0.6784082452080984 12.995954912923555 21016.556998907796 13.593997517594868 0.25078628832630784
0.7003023421278752 12.991031708181039 18162.458160387745 14.239945834499995 0.2543347826012193
0.7225369608598139 12.988021003504073 15719.881768331352 14.913721982007013 0.2579351862774973
0.7451321886246425 12.986643243767823 13626.160674961931 15.616331689186289 0.2615871521788503
0.7680577075321249 12.986759371966302 11828.753245981288 16.349089697831698 0.2652930565427066
0.7913072870036053 12.98814688736402 10283.491342349234 17.11359005577978 0.2690573577902069
0.8148848326299246 12.99068004417755 8950.510706971436 17.911288897149916 0.2728824906437649
0.838772094174996 12.994157565870704 7802.471900826526 18.74351771747178 0.27676922869127296
0.862958884302443 12.998422069334575 6809.71518278351 19.61168969228704 0.28071866219583913
0.8874439580733104 13.003381942693022 5915.281074344625 20.517859326978414 0.28473685692860784
0.9122053401271532 13.008878105586401 5207.721535898666 21.46382218965945 0.28882682909867874
0.9372306953046503 13.014778336524857 4562.510274814078 22.451019239770442 0.29298814801675754
0.9625176213434993 13.02098481719296 4001.6794844169635 23.48156392100123 0.2972253134513136
0.9880440637112295 13.027378059997243 3514.0831679742164 24.557838485572223 0.3015440873296704
1.0137911499494978 13.03382966027883 3089.924822124338 25.681733960947337 0.30594571434095724
1.0397603653692769 13.040280073558463 2719.409477576241 26.855316530280334 0.31043222488613637
1.0659160158361354 13.04661178045738 2396.5952024270387 28.08163529653695 0.3150119822679509
1.0922519776047326 13.052737426602567 2114.028179012063 29.362683947714917 0.3196850034954936
1.1187549905076313 13.058574989422144 1866.9447039454144 30.70134409720214 0.32445682867827447
1.1453917819435169 13.064031478801056 1650.7293894114603 32.100888533590194 0.32933465090547187
1.1721589793523484 13.069037597536918 1460.9854801173346 33.5633958431606 0.334317054911123
1.1990180445965455 13.073487472332195 1294.3799694772658 35.09334633191781 0.3394171809661666
1.2259683840622815 13.077359962095018 1148.1088968400436 36.692684936134064 0.34463130542469533
1.252968247332311 13.080513137839437 1019.4077879173096 38.366541951661375 0.34997434311949954
1.280015029724908 13.082948584381695 905.9529254305477 40.11724731272283 0.35544337726823855
1.307069220057436 13.084554261185426 806.0853294357381 41.950106611552485 0.361051992204359
1.3341035472477614 13.08524056702416 717.9410952340143 43.86878279888045 0.36680311542539074
1.3611137811988028 13.085031513818874 640.0576825589628 45.87778830850691 0.3727035107377559
1.388054900525851 13.083779267635974 571.2733227469754 47.982549529369656 0.37876363902596477
1.4149013534859374 13.081450293514322 510.3650331379711 50.18793274715486 0.3849896948771178
1.441634908161235 13.078002993889296 456.48087499135306 52.49895819420707 0.39138759916494464
1.4682334745687369 13.07339043811525 408.6534607878371 54.92214847082587 0.3979695784672367
1.494642603622932 13.067514041679887 366.2005637195589 57.46369967999321 0.4047447042642369
1.520855713011847 13.06035828827189 328.5517022086759 60.13024659212242 0.4117227589824737
1.5468409970682548 13.051860494299708 295.03145771734796 62.92890214000545 0.41891429454664936
1.5725590908475147 13.041966667297405 265.2166921990233 65.86730069602707 0.42633069571409254
1.597972601087902 13.030618820751911 238.67934329772143 68.95364551573697 0.4339842487515672
1.6230821644270774 13.017799166634349 215.02964389875456 72.19676077962997 0.4418882160828115
1.6478238097473652 13.003432878220085 193.90850522710892 75.60614871912863 0.4500569176111313
1.6721721310160857 12.987485558109597 175.07586836585804 79.19158837908726 0.4585038820682905
1.6961085922586407 12.969920418424275 158.2110019177235 82.96361765422525 0.4672438059380487
1.719588875389637 12.95068756963328 143.142557549907 86.93482506811904 0.47629756830562864
1.7425723900456087 12.929739307433074 129.64650574794834 91.11661965737677 0.4856788054516108
1.765049184603342 12.907063016137787 117.56239755163982 95.52346788565552 0.4954109027245453
1.7850765525021497 12.883785869769453 107.53702561382748 100.45326934246766 1.1393287452574161
