M[M_sun], R[km], Lambda[1], P_c[MeV/fm^3], rho_c[fm^-3]
0.24162668629717493 15.618656898711224 2160425.4255784233 3.5677272577965504 0.1711233750220791
0.25361805901128265 15.277948397654878 1723799.8963820434 3.784358552723779 0.1738824262464189
0.26598718922758363 14.98242465802474 1384317.483107498 4.010432342959701 0.176654949618766
0.27873526745129146 14.724953994905828 1117815.992113883 4.246219054966235 0.1794400102409627
0.2918565955163956 14.500147045929708 907462.6608005973 4.4923370075491835 0.18224404935063368
0.30536140997874683 14.303167320736392 740190.7464053718 4.748909934082061 0.1850621490074384
0.3192448368093542 14.130145289537158 606544.6986970401 5.016671790023511 0.18790206438527685
0.33350782802377715 13.978058348849286 499105.8066492204 5.295775733911734 0.19075903319874782
0.34815284351567594 13.844110022638933 412321.54362516105 5.587025011094442 0.1936408754888681
0.36317636698571204 13.726080703840294 341850.0738659299 5.8905031971669475 0.19654111558272183
0.3785904171783988 13.622025894615719 284376.23163516255 6.207096918769336 0.1994679555819019
0.3943840121903445 13.53042650644548 237367.87661611754 6.537148381969132 0.20241909314853046
0.4105620733781627 13.4497813670463 198747.57315848285 6.8812019081749565 0.20539557355219656
0.4271249480060512 13.378856376788962 166874.7603055001 7.2400298375424645 0.20840172610164262
0.44407479051935606 13.316618270872308 140497.1162637396 7.614002983484537 0.21143489676363408
0.4614065221511655 13.262178296231191 118602.47305284823 8.003845418474247 0.21449778391961893
0.47912223680152016 13.214660180014706 100368.62416424286 8.410360513092803 0.21759368302896478
0.49722787935357504 13.173353602603036 85138.9705936789 8.834139926739702 0.22072226096891817
0.5157111348848002 13.13763927234308 72378.76374028805 9.27575360389075 0.2238826587592824
0.5345809028159012 13.106963252565265 61667.76752344045 9.736221238078869 0.22707983909066567
0.5538279613523506 13.08083591231877 52645.81745760858 10.216345426328143 0.2303151416983796
0.5734504029305758 13.058739610146821 45035.485819221205 10.716811284781924 0.2335880175744587
0.593454163681456 13.040300211691722 38599.8728384816 11.238432606178563 0.23689927107597297
0.6138272042148833 13.02516113713582 33143.16147199417 11.782341136190697 0.24025310887398257
0.6345755323664367 13.012975410445117 28505.319249746906 12.294415535692375 0.2500525072467048
0.6552252123395587 13.003106571876097 24630.302705330556 12.946275156063443 0.2675528652945707
0.6759073035291686 12.994740200564165 21350.568010878877 13.57252612768541 0.28189599510965996
0.696697331713071 12.987565709175671 18551.22270612242 14.2269734797342 0.2957452064703438
0.7176133585958672 12.981295057627651 16154.665334375817 14.91304889767311 0.3093133910405542
0.7387156626677351 12.975857768803222 14089.748260114218 15.63225254499723 0.32262982667146406
0.7600183687123848 12.971051490743877 12307.056860126488 16.384469180611244 0.3356236062372564
0.781538869224589 12.966753753454956 10763.791104035714 17.170404903918005 0.34828832117480996
0.8033153940442169 12.963011209346115 9423.469393905203 17.994094155962415 0.36078964291906507
0.8253352067663402 12.959589058762294 8258.128473961116 18.85281239139083 0.3729442077634443
0.8476541073226451 12.956710954414548 7243.806256246948 19.752364376970416 0.3849748528724896
0.8702346764525931 12.954043534872591 6358.694041163967 20.69032145719768 0.39673452958208566
0.8931032136390933 12.95167475694801 5586.426575846676 21.672247912183597 0.40839830753757916
0.9162731306302169 12.949657613668567 4910.630440394373 22.69619866545562 0.41985363269887466
0.9397150435026311 12.947704732791 4320.296455733375 23.76636376980488 0.43120647342631296
0.9634483547501017 12.945998093720217 3803.235466989325 24.88494381513498 0.44248074150310074
0.9874568514372596 12.94441072645431 3350.192068981203 26.05298563101921 0.45366739267232736
1.0117360388346388 12.942882830424747 2953.593813388603 27.27216131353936 0.46477802584495
1.0362722813165075 12.941427355141286 2605.422459909293 28.54606815981084 0.47586708037699815
1.0610537205706145 12.939865060078125 2300.0655616815575 29.8770734258845 0.48695248186950824
1.0860647177848008 12.938279508573837 2032.006824701275 31.267804489348965 0.49805559367364255
1.1112942357096944 12.936580743619256 1796.5940852279589 32.72115839816683 0.5092003754574775
1.1367105221201712 12.934634689909482 1589.7452608893207 34.24031343962077 0.5204128263639456
1.1623019064450872 12.932451119635083 1407.885261075156 35.82813309160817 0.5317107393485984
1.1880416405231051 12.93001176440223 1247.7043891357237 37.487376522801945 0.5431091294134889
1.213909797084418 12.927029130920204 1106.7292237585164 39.22329544015495 0.5546588780239774
1.2398750816645185 12.923648844985166 982.6590872100891 41.03964959444451 0.566382991314382
1.2659047225121132 12.919747949878085 873.2191771321882 42.938920086869636 0.578286210489006
1.291996218579426 12.915294234387956 776.7707862528456 44.927906109151316 0.5904286940764991
1.3180823183605006 12.910119614745911 691.5350460359313 47.0095042844962 0.6028170917451219
1.3441662377430965 12.90420236498107 616.3380871525593 49.18953008026591 0.6154929411430249
1.3701960523419914 12.89749429764336 549.8432061515994 51.47385314010663 0.6284944933319945
1.3961415962240094 12.889886125595071 491.0144731156536 53.86792300952732 0.6418533792118502
1.4219649555969043 12.881289863867464 438.95813133745975 56.37777552900215 0.6556059708274993
1.4476470688898806 12.8717376996731 392.8597952803686 59.0100582402027 0.6697930071867696
1.4731355235269914 12.861003442852132 351.94998834459585 61.77206313721589 0.6844594211672947
1.4984114742031132 12.849165508972119 315.679165768417 64.67176665384063 0.6996543187192394
1.523421792673823 12.836070614836997 283.46157701570337 67.7174451884631 0.7154278076475773
1.5481367407234503 12.821698748240433 254.82008112745444 70.91667421171321 0.731824259445546
1.5725124446294365 12.805942557439467 229.35382668954205 74.28072244913518 0.7489148943303925
1.5965162115856872 12.788740564103406 206.65319979152824 77.81874667241537 0.7667546074955228
1.6201108114678806 12.770063248828562 186.43627039135004 81.54169090362942 0.7854111523189357
1.6432619852457735 12.749847224106961 168.39862036971536 85.46198436015375 0.804961656542422
1.6659159901199487 12.727983199965616 152.3036297260436 89.59237751568399 0.8254854075360764
1.6880416431500975 12.704457591133897 137.91803875820298 93.94691341472777 0.8470701191628763
1.7096002500494922 12.67920750035935 125.0428062931968 98.53931987359006 0.8698037032509234
1.7305422174365512 12.652158970785504 113.53482107378814 103.38765699286871 0.8937985436864591
1.750843265007104 12.623285780456344 103.21957833698552 108.50810527454966 0.9191598820758393
1.7704721091270987 12.592553489653898 93.95887526577005 113.92077176871857 0.9460149623709527
1.7893637466408314 12.559873625823352 85.65394863873487 119.64610473338927 0.9744961448880415
1.8074861970287186 12.525197496953721 78.1985481284716 125.70675587238001 1.0047500753728673
1.8248206449892197 12.48852893700926 71.48835441195763 132.1277666344839 1.0369385372155275
1.8413087858628068 12.449762252229364 65.44777478817815 138.93532711284112 1.0712346600879419
1.8569184642428205 12.408929122759847 60.01172522513563 146.15991162913406 1.1078347492229106
1.8716121051350398 12.365956333986158 55.10696636014606 153.83319755888084 1.146948439016198
1.8853477285034053 12.320779015081943 50.68597402596569 161.99044262782294 1.188807948049247
1.8981065839847018 12.27343816558038 46.69075417875585 170.67082073610908 1.233669773668213
1.90985669495317 12.22389610696317 43.085595235865284 179.91751302623382 1.2818160680580273
1.9205386132925666 12.172108911197803 39.82266855414208 189.7769607526318 1.3335546632194935
1.9301332792092774 12.118045299925393 36.8726286506437 200.3014232161232 1.3892272894156814
1.938611081079699 12.061732582426824 34.19972145636623 211.5478851889026 1.449209076975676
1.9459548699669809 12.003174946130802 31.781511140457088 223.58069016875515 1.5139164628217678
1.9521174236021002 11.942335560285485 29.58819072127738 236.46951985421637 1.583806214128581
1.9570763442841927 11.87926005444465 27.602545680892952 250.2931077550171 1.6593856401668587
1.960820871816138 11.813886043623368 25.797207740293906 265.1376813936639 1.741213747066581
1.9633076958361535 11.746292929707165 24.16365646748207 281.10080995512 1.8299117130763074
1.9645516086164765 11.676542922484996 22.680771355485074 298.2901050600438 1.9261659140004956
