M[M_sun], R[km], Lambda[1], P_c[MeV/fm^3], rho_c[fm^-3]
0.24162668629717493 15.618656898711224 2160425.4255784233 3.5677272577965504 0.1711233750220791
0.253643931954477 15.27726774763344 1723298.492410837 3.7848192006644537 0.1738881680007755
0.2660398758677419 14.981269834412503 1383031.8595268799 4.011400634182538 0.17666665084674757
0.27881478711302715 14.72352012040669 1116433.587094089 4.247727663176284 0.1794575078227752
0.29196897830815705 14.498420685005845 888700.048314418 4.494425431766888 0.1822673044389958
0.3055041857201793 14.301241250031513 738660.4952709058 4.7516489839588365 0.18509173597366285
0.31942062394056747 14.128146315974767 605102.487485392 5.020081549476684 0.1879374419556498
0.33371953585034353 13.975923408109589 497725.1661515003 5.299945852138991 0.19080101936981883
0.3483996937715989 13.84203765144433 411012.12466970814 5.5919720754934845 0.1936887965793267
0.36346361686592643 13.723964893601192 340655.21202503756 5.896325524448941 0.19659580011269015
0.37891554753121126 13.620007044472526 283310.9088272751 6.213871099333026 0.19952972795199836
0.39474853639740276 13.52844432298537 236403.0429312143 6.544867287830541 0.202486777525204
0.4109721234513699 13.447881101845786 197863.06393525132 6.890014362659362 0.2054706241125888
0.4275802470406757 13.377062105193673 166082.9987298758 7.250018368016326 0.20848435865441184
0.4445749483624459 13.314934947285783 139801.6691737324 7.6251398955993945 0.21152355374507933
0.46195615599920753 13.260578159816053 117982.95420149175 8.01632471534835 0.2145943213700183
0.47972039133952693 13.213162529465194 99814.21059792564 8.424279304690918 0.21769833288366883
0.4978771670137771 13.171993876486422 84647.38136075766 8.84944682090325 0.22083308942279495
0.5164165851876645 13.136394383476459 71939.73327043759 9.29269598239234 0.22400193416016775
0.5353339037958426 13.105848872146353 61279.380932085405 9.754913732094396 0.22720781779920962
0.5546400891587222 13.07980879587057 52300.81834966621 10.236909621745406 0.23045209121773993
0.574322493705906 13.05784126522355 44730.971490483316 10.739157794716954 0.23373148909032407
0.5943795936206234 13.039522658017846 38331.076312844634 11.262897012102082 0.23705212512689836
0.6148155534026779 13.024516898762721 32903.27275792034 11.809067649755319 0.24041565066865875
0.6356205069173526 13.012442791862552 28293.229685891856 12.378648670675371 0.2438236985901265
0.656789300026405 13.003028560857507 24372.10457178545 12.972333278335515 0.24727426710443104
0.678321104040381 12.995981822933059 21029.375509902842 13.591439858238964 0.2507720479642521
0.7002076868234834 12.99107121288522 18173.507962123516 14.237170038476345 0.2543197237723182
0.7224419174519384 12.987998955550639 15730.496992029064 14.91071345172722 0.257919279043834
0.7450274941087132 12.986649842761155 13634.284022872476 15.613104246546355 0.2615706556329223
0.7679499298702495 12.98676008033247 11837.236776633854 16.345599630825074 0.26527565943401754
0.7911936412660948 12.988140983874061 10289.21286915975 17.10981984529034 0.26903902453329714
0.8147664717787103 12.990665673171375 8956.503074868977 17.90721986243285 0.27286318336498233
0.8386499802677656 12.994121000254891 7807.795413671373 18.739167907530447 0.27674924356524466
0.8628306577067488 12.998401940846257 6815.06897169699 19.607002541180655 0.2806976339048563
0.8873097126693563 13.003362939471524 5955.713586394964 20.512812271366723 0.2847147399483591
0.912065305011557 13.00884865113291 5211.351991648015 21.458391120941542 0.2888035748351955
0.9370852485892164 13.014737747329477 4565.452354371227 22.445226783778367 0.29296408945229074
0.9623630505739065 13.02093762590876 4004.6249460697554 23.47533737581648 0.2972000256012315
0.9878874163891297 13.027332005618577 3516.7240660205907 24.551148537875477 0.30151751134333854
1.013629762407704 13.033785785372045 3092.0805175463697 25.67460650924879 0.30591820813218285
1.039593916078675 13.040239261894351 2721.6259082807132 26.847664426594385 0.3104033166163217
1.0657440032437162 13.046566083786347 2398.467847035331 28.07342271475826 0.3149816003568473
1.092075048429333 13.052698986683037 2115.9175278542693 29.353939998005124 0.31965353064535085
1.1185743506734704 13.058533631995617 1868.7253146488777 30.69196436885704 0.3244237410787459
1.145202859871211 13.063989551077626 1652.2075676266286 32.09090364383004 0.32930034380772805
1.1719663149130533 13.069009698287164 1462.12367220009 33.55268865102923 0.3342809705696826
1.1988203945155174 13.073457911639952 1295.4957392183164 35.08186629192712 0.33937921958616324
1.2257677624088499 13.077332230545167 1149.1259779375887 36.680465366913445 0.3445918869859383
1.252763149882062 13.080488649350144 1020.2730200933753 38.353533254684336 0.3499333799798177
1.2798039849665004 13.082931900645656 906.7900142592455 40.103301604501034 0.3554002339059604
1.306847348047538 13.084516911325222 806.8112343900608 41.935257254574445 0.3610071003485467
1.3338830089071865 13.085233977659723 718.5816546661196 43.85286327709449 0.36675579437367245
1.3608912654325263 13.085035154208324 640.6811331796102 45.860831983696364 0.3726542040485495
1.3878222002420295 13.083774239556124 571.8495215957676 47.96448396310181 0.3787122185926748
1.4146792383282474 13.081485315947663 510.86574724592697 50.16855980710576 0.38493540976415813
1.441401587109429 13.078035384946528 456.9168979311252 52.47830863942735 0.3913309032242391
1.4679964698528634 13.073440042220167 409.04446801679046 54.90013085027175 0.3979103109924877
1.494404976185052 13.067574648398843 366.551073464041 57.440215134124486 0.4046826921242964
1.5206159200874472 13.06043181681364 328.8565847459261 60.105188189514614 0.41165781560084175
1.5465998151769045 13.051944725350207 295.31212426851675 62.90215414776038 0.418846218779826
1.5723161168586324 13.04206696849133 265.48507136071385 65.83873777660723 0.4262592706179252
1.5977397354172973 13.030740736279638 238.94110060211517 68.92313184195443 0.4339092402234667
1.6228268625548887 13.017921370151745 215.25580608347516 72.16414905850219 0.44180937136625953
1.6475782964101964 13.003588192861933 194.1079893859193 75.5712791141611 0.4499739636472645
1.67192779260974 12.987653487562609 175.2504667845987 79.15446943824158 0.45841728400396575
1.6958648163769225 12.97010775075257 158.37601375155023 82.92388714672742 0.4671525053475327
1.7193452915398042 12.950897570041286 143.29158781346456 86.89227842805147 0.4762012210992208
1.7423312320904312 12.929958557634345 129.78812503978122 91.07123917665984 0.48557785058597014
1.7648110568109745 12.907315006123861 117.68797886634111 95.47481629980172 0.49530415028181085
1.786737420090664 12.882882172856545 106.82782933638063 100.11671825286625 0.5053978071780301
1.8080769437037614 12.85663165804406 97.09059952227038 105.01344654647363 0.5158844347362991
1.8287876232345261 12.828499815064227 88.33906282239994 110.18153907139859 0.5267865657324834
1.8488676132157476 12.798538708007968 80.46929565670605 115.63860433234863 0.5381274990328352
1.8682549558323354 12.76663179009058 73.3872937259723 121.40488648529984 0.5499367060907165
1.8869250350492652 12.732786058067708 67.01509923055137 127.50178476706733 0.56224390750547
1.9048489557388835 12.696975768340723 61.262023976458586 133.95175460439282 0.5750784627114655
1.9219919027111858 12.65916237580896 56.079538150718214 140.78042709267754 0.5884764950698289
1.9383063044278723 12.6192911944761 51.39688501990745 148.01550309506985 0.6024763661929254
1.9538041042591126 12.577440615530184 47.165612752202215 155.68551438235255 0.6171139656033785
1.9684220489046391 12.533517577921575 43.34314413205878 163.82406251716347 0.6324367504278529
1.982138936962143 12.487522285602378 39.882594412163215 172.46488090165988 0.6484861635625806
1.994927681334289 12.43945338226393 36.74694298010061 181.64731758614712 0.6653155866325638
2.006767704204264 12.389297022001237 33.906269752975845 191.4133335831167 0.6829793154516604
2.017616764836456 12.337029611542045 31.330066529769827 201.8089523101947 0.7015365694168325
2.0274548081098027 12.282649033099371 28.99352554634166 212.88414547080632 0.7210501205675667
2.036267042724678 12.226190035858476 26.872435878096713 224.69431730092802 0.7415900550920008
2.0440151544557703 12.167600702947604 24.944040561571615 237.3006866220079 0.7632337159569775
2.050675330351208 12.10690233079831 23.18935463877711 250.77006834779533 0.7860635641833746
2.0562519384432245 12.044162513369479 21.59592437691886 265.17552942418797 0.81016768850654
2.0607010211486303 11.979322109871216 20.144175115576676 280.59885376747707 0.8356459633550766
2.0640083950482992 11.912431189834798 18.822780712589175 297.1296770775449 0.8626050958520782
2.0661724358893188 11.843538797492904 17.6202430988137 314.86839218912826 0.89116567282555
2.067168228340179 11.77265261838192 16.52479933582529 333.92440198067413 0.9214536023736828
