M[M_sun], R[km], Lambda[1], P_c[MeV/fm^3], rho_c[fm^-3]
0.24162668629717493 15.618656898711224 2160425.4255784233 3.5677272577965504 0.1711233750220791
0.253644505305332 15.27726637330189 1723223.592042302 3.7848288232767406 0.17388828794199554
0.2660402322965092 14.981281794038647 1382918.1930850039 4.0114208628898504 0.17666689529873728
0.2788169503491269 14.723472510207369 1116386.9239420039 4.247759182404731 0.17945787339832672
0.29197127676104956 14.498369765837207 905850.2198850889 4.4944690686643805 0.18226779034597698
0.30550752615511545 14.301177124658354 738614.2340141167 4.751706220268155 0.1850923542350406
0.3194244627563093 14.12810979451314 605069.9254085696 5.0201528068760926 0.18793818127867148
0.33372253675540836 13.975926946587734 497676.8851816738 5.3000330067179835 0.1908018968718137
0.34840487120284186 13.841994992230335 410986.5927096906 5.592075344918015 0.19368979573941747
0.36346832908444915 13.723949887999558 340653.0320256352 5.8964472288993965 0.19659694318664422
0.3789225773580739 13.619961293183081 283288.0544446209 6.214012711690498 0.19953101928618613
0.3947552200727819 13.528416972443381 236399.68637801305 6.545028661127405 0.20248819255101283
0.4109807683696494 13.447845933501176 197852.59345547494 6.890198612309506 0.20547219325992677
0.42759038080654965 13.377015854283398 166064.26680968772 7.250227223093447 0.20848608645893987
0.4445854533988612 13.314916618230027 139793.80508195466 7.625372778907184 0.2115254076459528
0.4619676822253687 13.260567149752202 117973.83272211702 8.016585689071443 0.21459634021275462
0.4797337285912306 13.213134009029192 99802.57752650991 8.424570403977308 0.21770052154335312
0.49789149013377604 13.171958838825375 84633.91397050253 8.84976697247224 0.2208354074569447
0.5164298661183843 13.136391480132517 71930.94866971149 9.293050367479808 0.22400442905327686
0.5353493291607582 13.105850404762077 61269.10510937391 9.75530475365884 0.22721049493981957
0.5546573758281054 13.079806029993946 52302.082126216104 10.23733982876529 0.23045495622866805
0.5743406671895973 13.05782397977426 44726.715037112575 10.739625317967647 0.23373449073441407
0.5943985360112332 13.039506735168864 37987.7233880511 11.263408882719819 0.23705532330378093
0.6148358617632814 13.024490255588166 32897.24585926703 11.809626891799734 0.24041905179336354
0.6356411760518961 13.012424920288465 28288.299401597553 12.379258496876885 0.24382730941631658
0.6568127164208039 13.003006924661324 24174.37492372516 12.972990888264325 0.24727802573311847
0.6783451567172986 12.995978735200044 21025.697260300793 13.59215459047155 0.2507760274018349
0.7002342665623813 12.991061473180153 18170.078166545612 14.23794572551358 0.25432393191235264
0.7224697104250051 12.988006060433959 15727.99731856885 14.911554172324749 0.2579237242505451
0.7450583709331304 12.986647351483084 13632.475073184558 15.614006138350142 0.2615752655055748
0.7679793826108434 12.986757889029585 11834.75545183227 16.34657490783954 0.2652805209453268
0.7912259752851389 12.988145208780976 10287.445325837214 17.11087340252046 0.2690441476253428
0.8148000737959822 12.990668214388561 8955.107376041828 17.908356919428464 0.27286857861912306
0.8386851160631464 12.994140625237677 7806.717327165701 18.740383420886378 0.27675482822019165
0.8628649420193022 12.99840797852812 6813.026135971691 19.60831231620397 0.280703510039354
0.8873484610042277 13.003359310405843 5954.553256080878 20.51422261235133 0.28472092028123047
0.9121045127125564 13.008860568963316 5210.367782837784 21.45990876390041 0.2888100729428557
0.9371254992755932 13.014746629838381 4564.517844837792 22.446845406597586 0.29297081228997773
0.9624103180676945 13.020960551968935 4003.8797561114 23.47707729196514 0.2972070919176907
0.9879319396149547 13.027339762471213 3516.0539516080926 24.55301793746531 0.30152493758046334
1.0136751710313876 13.033799089921198 3091.6056089172657 25.676598155867723 0.3059258942800548
1.0396409729734764 13.040248502158798 2721.0545449658216 26.849802669635775 0.3104113945134996
1.0657918226436456 13.046583985742808 2397.775289546646 28.075717563852862 0.31499009000152506
1.0921246417273542 13.052715341799221 2115.357530063428 29.35638331953085 0.3196623251026364
1.1186241457433879 13.05854156969687 1868.2916787275065 30.694585334945646 0.3244329867064578
1.1452554438901963 13.064001060968568 1651.834255548328 32.093693699893024 0.329309930165551
1.1720195853545436 13.069012746725662 1461.8150778542276 33.555680525615195 0.33429105349551247
1.198876547610833 13.073475119412468 1295.1936230757497 35.08507410682443 0.33938982696038805
1.2258230209267544 13.077335780822548 1148.8561743144317 36.68387981294179 0.34460290146028083
1.252818508382473 13.080496511619637 1020.0033343254713 38.35716818917869 0.3499448260400718
1.2798632635927047 13.082934633819628 906.5646050298586 40.10719834429109 0.3554122891170542
1.3069070871755006 13.084523100851191 806.6123808969954 41.939406478422015 0.3610196440808426
1.3339453017209457 13.085240395113821 718.4643030900417 43.85731150694564 0.36676901681324514
1.3609551347532407 13.085033101811746 640.5134407542836 45.865569898641304 0.37266798126161227
1.3878855344202512 13.083774841228752 571.6871088185402 47.96953180113226 0.37872658636918705
1.4147426667147225 13.081479317128064 510.72434368911405 50.17397292217243 0.3849505779091126
1.44146718439894 13.078026661833714 456.7853675679084 52.48407843798095 0.3913467449293106
1.4680619728584365 13.073424264520675 408.9377506646146 54.90628288160331 0.39792687115441355
1.4944710804432746 13.067558927105416 366.4614004818382 57.446777017113085 0.40470001911066594
1.520683627639421 13.060408983357398 328.7731605842086 60.112189797930355 0.41167596153514163
1.5466671667845 13.051920718785302 295.22792489785576 62.90962781405616 0.41886523985473156
1.5723832742211934 13.042038247638683 265.4115450771684 65.84671851626136 0.4262792274398769
1.5978078839639829 13.03070870392978 238.87198116780976 68.93165760067177 0.4339301981919134
1.6228949930923513 13.0178821962316 215.18940586057417 72.17326098486863 0.44183140109136326
1.6476469701796854 13.003542307064281 194.05698112418293 75.58102186066606 0.4499971414103131
1.6719961918213508 12.987606675280446 175.18816808151573 79.164840617805 0.4584414798472332
1.6959329209146883 12.970052985190247 158.33439971935198 82.93498795186201 0.4671780149654012
1.7194127025507686 12.950839281849428 143.24738260053522 86.90416600577238 0.47622814061395913
1.7423925034708418 12.929886844551737 129.7648397549872 91.08391847496895 0.48560605735762596
1.764877525340794 12.90724699803214 117.65620664568176 95.48840946969784 0.49533397673177026
1.7868037125793836 12.882806558757304 106.80513174486508 100.13123713051849 0.5054291382861199
1.8081422128464992 12.856546950643276 97.06435482475501 105.02896642344936 0.5159173912275881
1.8288515076815708 12.82840815507261 88.30932085214633 110.19814207280236 0.5268212781918914
1.848930684617134 12.798438424392563 80.44583950174865 115.65644794868834 0.5381643577868344
1.868306541899055 12.766496963854129 73.37058769238261 121.4240031831554 0.5499756206820623
1.886986135672896 12.732672202479566 66.99657775056308 127.52224660493505 0.5622849190270777
1.9049080881547253 12.696853337712156 61.24388887982581 133.97367423372685 0.5751217388657553
1.9220477116022974 12.659033839888156 56.06276856425758 140.80397046029583 0.5885223665030396
1.9383605749988846 12.619141558202816 51.38131161931272 148.04081119778033 0.6025250475876457
1.9538562087643756 12.57729388162304 47.15502754615177 155.7126587183923 0.6171654068373602
1.9684719626649583 12.533359420501196 43.331641483529495 163.8532075890317 0.6324911936643152
1.9821852484044933 12.487355217752109 39.87146106701031 172.4962950797631 0.648544166407693
1.9949733574594626 12.439274712407626 36.73785344040444 181.6811147548081 0.6653771486439041
2.0068088670077504 12.389111833544803 33.89707299511798 191.4497332288552 0.6830447515313526
2.017654683781571 12.336833373218049 31.32181399023329 201.84819655302059 0.701606224076723
2.027490211571742 12.282445014936892 28.98571128887927 212.92640271658928 0.7211240470908933
2.036298134095888 12.225975709095477 26.864469923081764 224.73997870232776 0.7416689819113641
2.044041318909348 12.16737596237082 24.93739744281667 237.34997464149117 0.7633177565578712
2.050699347189558 12.106665598078381 23.183160068190606 250.82333909963697 0.7861531985684015
2.0562706193624036 12.043915104147231 21.589207668944194 265.2332876605795 0.8102638015675783
2.0607153002379377 11.979061842078622 20.13763978424767 280.6613190373984 0.8357484209364118
2.064019994543404 11.912163044931942 18.81831483743168 297.19744745099837 0.8627148960002439
2.0661782825838033 11.843256251368581 17.615207134434513 314.94201189879607 0.8912835235008457
2.067169217815933 11.77235965956209 16.520663831395737 334.00435661471073 0.9215798843314125
