M[M_sun], R[km], Lambda[1], P_c[MeV/fm^3], rho_c[fm^-3]
0.24162668629717493 15.618656898711224 2160425.4255784233 3.5677272577965504 0.1711233750220791
0.2536350231656208 15.277498475668322 1723429.2210510522 3.784654802563031 0.17388611885774952
0.26602201899270067 14.981640634570926 1383478.8693445595 4.011055046881868 0.17666247462817064
0.2787857246964027 14.724066045684982 1116946.0356122123 4.24718920554129 0.1794512625256476
0.291928676565559 14.499055851080845 906418.7937970209 4.493679985246401 0.18225900371898107
0.3054543602686207 14.301879580113116 739182.6525293108 4.7506712499378505 0.18508117458020276
0.31935881289666024 14.128841211199616 605581.6138762451 5.018864337299117 0.1879248129095068
0.3336443938542889 13.976696391999038 498159.2762682118 5.298457131023479 0.19078603041842068
0.3483119982431031 13.842770000135491 411465.6819584458 5.590208140378419 0.1936717300218466
0.36336048101015167 13.724729794223636 341063.4018361427 5.8942467640783205 0.19657627595537666
0.3787995077394832 13.620731748647037 283690.80797995045 6.211452375200236 0.19950767210024076
0.39461669346536465 13.52916455781762 236759.4982996724 6.54211112303549 0.20246260968334764
0.4108261347427761 13.448569791179084 198183.11816205716 6.886867573477754 0.20544382473541936
0.4274178750712231 13.37769654297172 166363.16215955588 7.24645144647881 0.20845485042665562
0.4443963413130164 13.31553707433191 140059.6277055451 7.62116271120882 0.21149189280000918
0.46176091998141794 13.261129962069797 118205.77850583984 8.011867928186813 0.21455984451816615
0.4795069584447313 13.21369569332047 100011.51852997518 8.419308186853415 0.21766095702702606
0.4976451156434473 13.172481224723187 84820.83706244612 8.843979710614915 0.22079350520839092
0.5161629031703807 13.136842475052127 72103.15325939686 9.286644446614382 0.22395933097102164
0.5350630431272654 13.106254833542662 61420.58028141646 9.74823677047254 0.22716210378562465
0.5543506071881134 13.08016983095135 52424.840452019205 10.22956374393309 0.23040317053714612
0.5740101248792349 13.058148675167292 44841.127538862835 10.731174922990458 0.23368023658105577
0.5940517744484171 13.039801841564564 38425.098542974025 11.254157155992614 0.23699751834776733
0.6144626884444785 13.024738732318426 32985.90790230179 11.799519217851428 0.24035758027147622
0.6352423984431202 13.012631440521245 28138.60908780878 12.368236854588838 0.24376204945449048
0.6563898971835616 13.003147684538275 24439.73572746755 12.961105888158725 0.24721009594618853
0.6779012502271881 12.99609284311218 21089.49191330636 13.579237548532307 0.25070410877299987
0.6997662630603276 12.99114301097266 18226.165395048578 14.223927433604167 0.25424788199458115
0.7219758021377302 12.988039776151464 15777.453471004977 14.896360977678425 0.25784339210333196
0.7445384120115444 12.986661493247269 13676.408264682996 15.59770782633323 0.26149195934564196
0.7674331346546502 12.986736106381732 11873.713075201282 16.32895088595397 0.2651926696164845
0.7906546511445278 12.988098394589535 10322.565476980017 17.09183528603428 0.26895157171171763
0.8142040382096268 12.990592749006625 8986.997985084789 17.887810466580376 0.27277108716950066
0.8380605599624921 12.994030202660198 7834.37340838949 18.718403593770287 0.2766537733328019
0.8622187284759011 12.998299721673332 6838.1785531419355 19.584645988891534 0.2805973341542747
0.8866641963272929 13.00322187404438 5976.736913431774 20.4887398241255 0.2846092507520561
0.9113991912252498 13.00868493334815 5229.992153879705 21.432487907199246 0.2886926647751846
0.9363977165901135 13.014570323094235 4581.947340666581 22.41760066342837 0.2928493462762845
0.96164595418104 13.020759123234267 4019.505831248105 23.445641895325373 0.2970794234315701
0.987144318731953 13.027142263553246 3530.016933042573 24.519244042150504 0.3013907699275985
1.0128614182660767 13.033603843715127 3104.0012389494555 25.64061643832492 0.3057870339023695
1.038798528835809 13.04004893688647 2732.1940674834823 26.81117354264472 0.31026546062765675
1.0649291010293902 13.046382800028333 2407.974351299877 28.03426035434327 0.3148367217565728
1.091230568529815 13.052509392919179 2124.2210117317836 29.312244885508306 0.31950345384129186
1.1177027153685577 13.058351851149135 1876.0564163383128 30.64723908417275 0.3242659697388959
1.1443152964173267 13.06382710880591 1658.8235770527567 32.04303979014325 0.32913511672215484
1.1710492833700865 13.06884022908138 1468.291566065172 33.50163678728346 0.3341089205251919
1.197881257988752 13.073306743724954 1301.0632112459143 35.02713139916276 0.3391982261344545
1.2248046271136113 13.077204739607783 1154.0396861680947 36.622206180825145 0.3444039518699456
1.2517832840657885 13.080406908237663 1024.6597622336687 38.29108251757194 0.34973555644835713
1.2787995511176107 13.08286151313763 910.7486325264432 40.03681703422199 0.3551945528565769
1.3058221266234409 13.084470433866471 810.3759138284366 41.86446674906727 0.36079308992568393
1.332838630519259 13.085219737896782 721.8337953360309 43.77697385448278 0.36653021176255124
1.3598291602194228 13.085059527797807 643.633523757974 45.78000254046623 0.3724191630074861
1.386743323704642 13.083851908211008 574.4154206547172 47.87836955485435 0.3784671091884667
1.413575122398947 13.08158592880645 513.223624973803 50.076217036585064 0.3846766551447755
1.4403006458398822 13.078218464663978 459.0259544360451 52.37988398130466 0.3910606659895668
1.466867737999233 13.073645846605952 410.96032953892257 54.7951888897188 0.39762782610807923
1.4932702284042505 13.067852892922993 368.29057958339655 57.32828520673541 0.4043871354480216
1.5194658514656187 13.060761821584093 330.4260970990221 59.98576122727027 0.41134829903238485
1.5454455608943563 13.052353199092254 296.7223496300217 62.77467921047338 0.4185217849297237
1.5711554570183293 13.042546456925232 266.7576741872272 65.7026182338457 0.4259188869446353
1.596573564158411 13.031295700455836 240.07458947136087 68.77772116618259 0.4335517925808957
1.6216691835090342 13.018565611591951 216.2931251959559 72.0087461853532 0.4414336568973183
1.6464002502642225 13.004297855583857 195.06135958469673 75.40512332029714 0.4495786829512745
1.6707653086347052 12.988462991603544 176.11139874873635 78.977016557093 0.45800220960805554
1.6946966241360526 12.971007129699624 159.16360627883262 82.73458284611225 0.4667174846160626
1.7181873933327292 12.95189857909807 144.0064619337074 86.6895645446764 0.4757421738905045
1.7411904817219535 12.931084813943404 130.4347337520428 90.85503129256176 0.4850968676271132
1.7636759069453862 12.90853355417081 118.28171874201057 95.24303395444697 0.49479556806161973
1.785612029317829 12.884197352797667 107.37063466787247 99.86915969886039 0.5048635865585093
1.8069615336263396 12.85805204642297 97.57778779002948 104.74866544862692 0.5153218999024473
1.8277059672067542 12.83007626954437 88.78985003115191 109.89742980409858 0.5261908788914705
1.847785582757388 12.800184895487096 80.8740277096952 115.3343909422132 0.5374990991447858
1.867207035548039 12.768440985095355 73.75845943140384 121.07898105171112 0.5492732820589474
1.8859042714424805 12.734724990056598 67.34767332758562 127.1523596126015 0.5615426140085693
1.9038441390142253 12.699017318647238 61.5687193450809 133.5775887969941 0.5743389589728733
1.921021432249298 12.66135122318424 56.362018424221766 140.37910232610935 0.5876945618084585
1.9373890180724198 12.621677488437376 51.65778197399397 147.58411522743967 0.601646570166654
1.9529286355482942 12.57999038867087 47.40382832454861 155.22284580776665 0.616237162340761
1.9675805802071746 12.53620046465794 43.561456591058274 163.325995573946 0.6315043567634975
1.981343047516138 12.490359119380008 40.082281168884684 171.92948229758733 0.647497608579433
1.994190918742324 12.442478898075226 36.92838566791505 181.071331256892 0.6642664195473229
2.006060296689322 12.392438427109226 34.075168656676176 190.79302386633336 0.6818641772343028
2.016962968803874 12.340338976972017 31.486441559725247 201.14019863462119 0.7003495976098
2.0268596647359556 12.28613869892856 29.13573280473404 212.16311219172195 0.7197872343353297
2.035728130500979 12.229843428814238 27.00099809153183 223.91628708444875 0.740245211340544
2.0435453936589556 12.171456492010577 25.0631035134903 236.46010856647004 0.7617992153534762
2.0502793880225454 12.110957111995736 23.299964410283422 249.86070682078184 0.7845306673131898
2.05590658668142 12.048343085765195 21.696969187624983 264.1915389151339 0.8085302711308303
2.060431191243882 11.983705725468004 20.235672088617413 279.5330998078695 0.8338952271492516
2.0638271625933338 11.917030374921588 18.908627923238964 295.97473632001464 0.8607330400089556
2.0660605365069107 11.848310332494128 17.698822063591255 313.61439851375746 0.8891582755928548
2.0671368303401727 11.777615661740876 16.597127328909185 332.562585819322 0.9193027225279344
