M[M_sun], R[km], Lambda[1], P_c[MeV/fm^3], rho_c[fm^-3]
0.24162668629717493 15.618656898711224 2160425.4255784233 3.5677272577965504 0.1711233750220791
0.2536444473035644 15.277249219615147 1723158.2124703068 3.784829842966746 0.17388830065193955
0.2660403341932894 14.981258511627901 1383024.9218435741 4.0114230064919685 0.1766669212029038
0.2788170699417318 14.723467146146199 1116424.8041218838 4.247762522450846 0.1794579121378283
0.29197152000330495 14.498385004612812 905877.6617177823 4.494473692810668 0.18226784183691908
0.3055079471769312 14.301177462818186 738578.6239309588 4.751712285538306 0.18509241975153398
0.3194247123843599 14.12809166373345 605024.7481026127 5.020160357959656 0.1879382596240779
0.3337229522797201 13.975926081308355 497653.46530247363 5.3000422424287486 0.19080198986009628
0.348405419426027 13.841990366106726 410983.71225842 5.5920862883268185 0.19368990161990807
0.36346936726251966 13.723939555108275 340638.6304963991 5.896460125881999 0.1965970643178341
0.37892306356309463 13.619966956199013 283278.36098235333 6.214027718334815 0.19953115612871314
0.39475620371213804 13.528421475261245 236397.3543786668 6.54504576186417 0.2024883425013723
0.4109816752073811 13.447852207291554 197850.20740006812 6.890218137289102 0.20547235954284634
0.42759078458405525 13.377018144751476 166063.5078911622 7.250249355554852 0.20848626955512103
0.4445865555939916 13.31490165040723 139785.45002978083 7.625397457689192 0.211525604104926
0.46196886920215896 13.260556897536613 117970.50314638077 8.016613344659127 0.21459655415108395
0.47973438563102383 13.213143263440855 99799.91933515867 8.424601252047289 0.21770075347771456
0.4978921894507311 13.171964051205245 84635.71879837447 8.849800899291598 0.22083565310161266
0.5164311629980929 13.136383554477467 71934.70162457136 9.293087922126988 0.22400469344033425
0.5353515312608806 13.105821582216391 61270.32981033463 9.755346190791032 0.22721077864036052
0.5546591337555481 13.0797836965595 52299.70730084173 10.237385418514851 0.2304552598386155
0.57434260032617 13.057822046017149 44322.356897428144 10.739674862251588 0.2337348088240639
0.5944002501836072 13.039507654971702 38323.268473231044 11.263463126664963 0.2370556622209318
0.6148388684808084 13.024487503363929 32897.282085125706 11.809686155887853 0.24041941221789925
0.6356434211040396 13.012423939242042 28288.27101010009 12.379323121585143 0.24382769206400953
0.6568152053607923 13.003030596476778 24367.979156081998 12.9730605768236 0.24727842404434616
0.6783475202404232 12.995973216486092 21024.74209064945 13.592230332549056 0.25077644911342994
0.7002367934010526 12.991063708731685 18170.3978818212 14.238027927270586 0.2543243778608963
0.722472537792413 12.987996897133677 15726.871612702438 14.911643266020898 0.25792419532250077
0.7450611231730766 12.986652464969552 13631.818132889604 15.614101714674868 0.2615757540283485
0.767982676999203 12.986766461127022 11834.39474555301 16.346678261198882 0.26528103613590115
0.7912287562420508 12.988140601643405 10287.264904399404 17.110985051681688 0.26904469053740626
0.8148030678000665 12.99067209858518 8954.803578438776 17.90847741755496 0.27286915037411724
0.8386878285345906 12.994140155860267 7806.508195363643 18.74051223349924 0.2767554200474983
0.8628686406061359 12.998404834344509 6813.039884446801 19.6084511183209 0.28070413275691475
0.8873520205932117 13.003358570818476 5954.306672314974 20.51437207209979 0.2847215752370223
0.9121076675559522 13.008860276349276 5210.228402503063 21.46006959516269 0.28881076157574614
0.9371304350017008 13.014749561927836 4564.483762270662 22.447016939374127 0.2929715247394755
0.9624147248714059 13.020959356358786 4003.9314423486676 23.477261679061126 0.29720784076847423
0.9879364505816635 13.027338803096796 3515.965496513898 24.55321604687364 0.30152572457509563
1.0136800719252925 13.033800763908305 3091.6104035647163 25.676809220687023 0.30592670881984124
1.0396452943577041 13.040253449766642 2720.9450154480155 26.850029270414204 0.3104122505704366
1.0657970220859558 13.046582543071287 2397.7097738720113 28.075960761423833 0.3149909896950905
1.092128893238457 13.052716908735853 2115.217192684286 29.35664225190047 0.3196632571001818
1.1186283680438776 13.058546457928673 1868.2221616317152 30.694863093799164 0.32443396651881196
1.145259295457844 13.064004849843638 1651.554663920047 32.093989378617636 0.32931094608852557
1.1720247937879815 13.069012360351154 1461.7294856627095 33.5559975928255 0.33429212204470216
1.1988826756903828 13.073467613605068 1295.1260588272442 35.08541405918208 0.3393909510906735
1.225829156599372 13.077340975938615 1148.8017886749278 36.68424166385364 0.3446040687353092
1.2528257292488745 13.080499175208637 1019.9640410241173 38.357553407273656 0.34994603905492333
1.2798692353276304 13.082938630520083 906.5199100552309 40.107611308427245 0.3554135666901291
1.3069137056402744 13.084520733969683 806.6178214472334 41.939846200719565 0.3610209734279657
1.3339515526173593 13.08524085853902 718.4356149974402 43.857782917940625 0.3667704180905181
1.360961097394571 13.085033825343915 640.4907216491852 45.86607201048264 0.37266944133464014
1.38789267767255 13.083772040534978 571.6868413554428 47.97006675871059 0.378728109031143
1.414742096205259 13.08146257924115 510.7420085051883 50.17454659211546 0.3849521853955127
1.4414736332654485 13.078024713875175 456.7722272862334 52.48468990951623 0.3913484238010479
1.4680692543866456 13.073424205924256 408.91880580108784 54.906934862552774 0.3979286261698733
1.4944777232273192 13.067558021210314 366.45334387787335 57.44747243465023 0.40470185539610537
1.5206902817990786 13.06040808259773 328.76155743538845 60.112931818220616 0.41167788461490223
1.5466743853644518 13.051920482784837 295.2225325035826 62.910419863858 0.418867255684448
1.5723905769681683 13.042037382692577 265.40184076545694 65.84756430670421 0.42628134244299787
1.5978150007824576 13.030704070319986 238.86907399735392 68.93256115345868 0.4339324192999023
1.6229023159168858 13.017879465888688 215.18229131987442 72.17422666117514 0.44183373578797036
1.6476548602082515 13.003536872799167 194.0544080285352 75.58205439304712 0.44999959778037835
1.6720028628071533 12.987600678887231 175.1900611274474 79.16593975322147 0.45844404411758494
1.6959406738713705 12.970047771701132 158.33219842169353 82.93616441541164 0.4671807184752118
1.719420635634152 12.950833051078616 143.24627267048783 86.905425854316 0.47623099355105314
1.7423998495715036 12.929878788559328 129.75638875820655 91.08526223288155 0.48560904672436195
1.7648850132936806 12.907238748277159 117.65156755020674 95.48985008353584 0.49533713776020427
1.786811703620857 12.882796194960942 106.79709890457076 100.13277585471684 0.5054324587861844
1.8081489452375443 12.856536765931759 97.06231014215753 105.03061123801571 0.5159208839947673
1.8288583012318727 12.828399331676358 88.3073065424825 110.1999016820488 0.526824957066756
1.8489368773646873 12.798427717990254 80.44329184167867 115.65833904497585 0.5381682641391972
1.8683131981881318 12.76648589710369 73.36735043756427 121.42602920752681 0.5499797449252273
1.8869909731175665 12.732661232057739 66.99299179375718 127.52441122994037 0.5622892513526443
1.9049135983217003 12.696840906483171 61.24358135356809 133.97599732893875 0.5751263253770182
1.9220536758692426 12.659020108740277 56.06103969230146 140.80646564969805 0.5885272280808677
1.9383670353140847 12.619127116859735 51.38003457398916 148.04349342575247 0.6025302069865992
1.953861270657858 12.577279931057681 47.153042198242694 155.7155355629549 0.6171708587457825
1.9684762407937113 12.533344460124006 43.328788720593145 163.85629648600633 0.6324969637495342
1.9821892402432273 12.487336706720024 39.87006763227669 172.49962447442698 0.6485503137709113
1.994978279122915 12.439255702244077 36.736488827200446 181.68469671785704 0.6653836732392644
2.0068130672486597 12.389093000259702 33.89488761690076 191.45359102425013 0.6830516867364013
2.0176581524692057 12.336813400733986 31.321087573571187 201.85235584382536 0.7016136064076214
2.0274926361709804 12.282423905657673 28.984493653257637 212.93088135246026 0.7211318821964012
2.0363013251869146 12.225953180257381 26.863863494321436 224.74481814334922 0.7416773470003805
2.044044522319987 12.167352538759651 24.9369186439366 237.35519846716826 0.7633266636605194
2.0507013402314707 12.106640824314633 23.182274780852836 250.82898505623277 0.7861626985628611
2.0562730573143337 12.043888726361747 21.58906896836515 265.239409249904 0.810273988247871
2.0607163693000623 11.979034970724998 20.137059509192383 280.6679395300372 0.8357592800852456
2.064020752669873 11.912134672007758 18.81775588772859 297.20463024057824 0.8627265334063835
2.0661785238555206 11.843227136134859 17.614799694724518 314.949814672406 0.8912960142067078
2.067170181224045 11.772327943380102 16.52023666104755 334.0128308430705 0.9215932686981901
