M[M_sun], R[km], Lambda[1], P_c[MeV/fm^3], rho_c[fm^-3]
0.24162668629717493 15.618656898711224 2160425.4255784233 3.5677272577965504 0.1711233750220791
0.2536461062843669 15.277238442463208 1723266.01749902 3.7848599670217213 0.1738886761337525
0.26604395405207837 14.981192257157291 1382930.901816405 4.011486333938427 0.17666768647772096
0.27882217745727106 14.723394926778406 1116292.5546251864 4.247861196445283 0.17945905660746525
0.29197922426473105 14.49825805187116 905741.366724297 4.494610303347773 0.1822693630269554
0.30551683374706956 14.301088804376825 738556.9163517645 4.7518914720035665 0.1850943553073413
0.3194366216212126 14.127960197639805 604966.2337524036 5.020383441032936 0.18794057419706534
0.33373696700816935 13.975767369998605 497557.5481138375 5.300315096240556 0.19080473704523485
0.34842162280305017 13.841853555997886 410898.81831458607 5.592409594892512 0.19369302969986973
0.3634872053088321 13.723811130242261 340552.4125572219 5.896841149871688 0.19660064297577853
0.37894458752322 13.619819453249148 283207.9869044915 6.214471071775827 0.19953519897826286
0.394779550248006 13.528292762742726 236329.84310545388 6.545550985205357 0.20249277262755122
0.4110087464589006 13.447729125666875 197796.4283918046 6.890794985322967 0.20547727222276763
0.4276210453881557 13.376896487180735 166008.8041132935 7.250903242661375 0.20849167899557638
0.44461842580514094 13.31479167549845 139740.6054922604 7.626126577295628 0.2115314083658156
0.462002964525735 13.260429098007728 117927.11779193341 8.017430416305038 0.2146028748608391
0.47977396844797454 13.213032935882644 99761.57690933984 8.425512648698803 0.2177076059064248
0.4979344016056837 13.171908722436454 84601.62237801994 8.850803261066451 0.22084291062913883
0.5164780648118426 13.136296729492436 71904.52291001374 9.294197472926882 0.22401250474713794
0.535401033519651 13.10575046413578 61247.42670325537 9.7565704555344 0.22721916060483469
0.5547126523913887 13.079718651061015 52275.769177310794 10.238722317990803 0.2304641007047
0.5743990313666356 13.057769465799987 44704.96002856408 10.741138667124432 0.23374420690477754
0.5944605904629298 13.039459851875932 38304.95811836006 11.265065792664355 0.23706567570709833
0.614902874657816 13.024449180699817 32880.708755176194 11.811437153208802 0.24043006120308513
0.6357107052250445 13.012406283045324 28274.41555877207 12.381232511346804 0.24383899770247072
0.65688718475474 13.002991289848675 24355.026536525627 12.975119590647344 0.2472901925230243
0.6784251654030122 12.995961655516625 21013.627815404878 13.594468214112158 0.250788909038409
0.7003188846303633 12.991047220976055 18160.2039702667 14.24045667885068 0.25433755395675356
0.7225578570978117 12.987994019363668 15719.010222947849 14.914275661194827 0.25793811378807424
0.7451499210087448 12.986641991310227 13624.202588006103 15.616925659355292 0.2615901881603583
0.7680772737697085 12.986769807325892 11827.41824606707 16.349732004800206 0.26529625828184844
0.791328266049164 12.988146084792081 10282.291078991713 17.114283924390957 0.2690607318382994
0.8149066299777944 12.990685519098623 8949.316784957362 17.91203776610159 0.2728860439733939
0.8387967888034908 12.994157664939385 7801.75971263318 18.744318264754572 0.27677290679182315
0.8629821412575236 12.998430200271256 6808.829220467793 19.61255233003991 0.2807225323073991
0.8874679963158866 13.003395899823905 5950.5900496535 20.51878820868727 0.28474092743228147
0.912231172300286 13.008883999132113 5206.90520525189 21.464821753299887 0.28883110894072644
0.937256239669196 13.014783795912068 4561.768877542174 22.452085320742174 0.29299257591017963
0.9625464071504083 13.020984059444228 4001.056594975862 23.482709902096477 0.29722996762104553
0.9880726068919518 13.027372868194744 3513.610011270259 24.559069762989242 0.3015489786103334
1.013820362665312 13.03383087160713 3089.429374849591 25.683045767536676 0.3059507768552252
1.0397904745039315 13.040298763107092 2719.0938007975055 26.85672490848256 0.31043754548537833
1.0659469113083782 13.046622202695152 2396.209293441025 28.08314684162744 0.3150175741305108
1.0922855756021006 13.052745373406509 2113.854935100892 29.364293301189292 0.3196907961798533
1.1187884956471221 13.058579651137368 1866.6434533530685 30.70307047982573 0.324462918604846
1.1454265411307984 13.064043327657524 1650.4616063015778 32.102726309316076 0.32934096532185236
1.1721934473342184 13.069038787292728 1460.7262390988767 33.56536657666258 0.3343236964862158
1.199054333783109 13.073492929487196 1294.2447377277692 35.09545932857489 0.33942416807327686
1.226005899702044 13.07736009167104 1147.917824574131 36.69493406241132 0.3446385607579085
1.2529907811529106 13.080522128753703 1019.2006488537527 38.20773029686593 0.34947830783449263
1.2549436006664625 13.06476498466584 999.2726592422925 41.16394040165651 1.6907085624174374
