M[M_sun], R[km], Lambda[1], P_c[MeV/fm^3], rho_c[fm^-3]
0.24162668629717493 15.618656898711224 2160425.4255784233 3.5677272577965504 0.1711233750220791
0.25364376201891947 15.27728573812084 1723187.3519424386 3.7848155694611467 0.17388812273957802
0.2660394811996929 14.981280283476199 1383008.0405097378 4.0113930006663745 0.17666655860020974
0.2788141817877157 14.723537721220938 1116476.803489808 4.247715769091361 0.1794573698693141
0.2919678167016409 14.498461931873848 888741.2162051249 4.494408965001163 0.1822671210777377
0.30550470332858765 14.301196728108417 738604.2429601125 4.751627385387099 0.1850915026678666
0.31941961491964765 14.128156453450277 605154.8952767171 5.020054659996554 0.18793716296691507
0.3337173822633612 13.97595421731138 497701.6871819655 5.299912963822507 0.19080068823904342
0.34839774077864816 13.842054175156571 411022.1437547049 5.59193310622491 0.19368841954093316
0.3634588043779689 13.724095483627371 340662.3687144636 5.896279598728705 0.19659536876860675
0.37891307625000165 13.620020386158643 283318.59677981015 6.213817661394589 0.1995292406623433
0.3947446421288137 13.528504831842001 236410.79051043425 6.544806393154419 0.20248624356115907
0.4109689009810594 13.447920553395043 197879.38032046048 6.889944835678607 0.2054700319916448
0.42757705885476405 13.377071595801267 166095.21904713544 7.249939556299805 0.20848370666527877
0.444571062530074 13.314949130577961 139817.49280294083 7.625052016972807 0.21152285417470593
0.4619523839734252 13.260609032121017 117988.53068941289 8.016226237001897 0.21459355956039217
0.4797157289494754 13.213174608327884 99814.92676686755 8.424169458708294 0.21769750699544135
0.49787206660646866 13.172039508837548 84651.5184612671 8.849326012302159 0.2208322147169055
0.5164108592383289 13.136406543817326 71945.71799527077 9.292562256118792 0.22400099271886512
0.5353269759683421 13.105865103361456 61279.96441129508 9.754766181453808 0.22720680758942105
0.5546333803052498 13.07983918875042 52304.15520210456 10.2367472849489 0.23045101011800298
0.5743151323166258 13.057871051774473 44733.17294544704 10.738981377116675 0.23373035643468293
0.5943716546560239 13.039532945219065 38332.494246471746 11.262703860642567 0.23705091831308397
0.6148074468314546 13.024512808840111 32905.34185528921 11.808856623396384 0.24041436727630672
0.635611198218463 13.012453644949064 28295.710707399237 12.378418557190425 0.24382233607110704
0.6567796062251707 13.003025409395121 24373.12843319108 12.972085134441722 0.2472728488156903
0.6783121633446866 12.995975346493807 21030.420744767314 13.591170160253947 0.25077054635812795
0.7001986362270567 12.99105392854876 18038.38461432151 14.236877340331851 0.2543181358705992
0.7224323002727729 12.988004598422279 15731.989025149396 14.910396214442725 0.25791760169072736
0.7450182946392984 12.98665113774435 13635.401518510278 15.612763927518568 0.2615689161477948
0.7679376852406462 12.986759292163624 11837.742159574935 16.34523162145132 0.26527382499958935
0.7911816832230177 12.988129487542762 10289.939340218625 17.10942229861884 0.2690370913984542
0.8147540157774777 12.990670584724617 8957.182447500869 17.906790809061647 0.27286114753741475
0.8386371652575908 12.99412977310159 7808.417792339277 18.738709250474265 0.27674713627338704
0.8628174229261726 12.998394751710203 6815.466923995932 19.606508316831327 0.28069541663189185
0.8872913278882555 13.00334208857427 5956.288846031458 20.51228010105172 0.28471240789552443
0.912050675526088 13.008842743476272 5211.855721014122 21.457818463103113 0.28880112288016563
0.9370704488694998 13.014726343810912 4566.037712351591 22.44461602388525 0.2929615527034087
0.9623470812308774 13.020925821943745 4005.0057010836654 23.4746808493466 0.2971973592521643
0.9878716852876448 13.027322240308624 3517.126443229675 24.55044315464977 0.301514709190644
1.0136130682805435 13.033782631476273 3092.2892952427915 25.673854999689105 0.30591530791205945
1.0395755181028512 13.040242259779857 2721.8464743575955 26.846857603458993 0.31040026858380043
1.0657255271302208 13.046563639221588 2386.4574501678276 28.07255680138178 0.3149783969667397
1.092057066313586 13.052694622173357 2116.0861407181915 29.353018063307807 0.3196502122465113
1.1185540427621556 13.058530734668958 1868.9088987076077 30.6909754060385 0.3244202524483203
1.1451834009911586 13.063985176793478 1652.3415324714301 32.089850880622535 0.32929672661704007
1.1719469155332531 13.068994894256562 1462.2821881078273 33.55155973885596 0.33427716601926294
1.1988003471166322 13.073462618071067 1295.5907219712917 35.080655902665875 0.3393752171570136
1.2257447816252234 13.077330811728464 1149.1654638791565 36.67917701297262 0.3445877309555581
1.2527397663535895 13.080488995622256 1020.337168853358 38.35215460099207 0.3499290194203003
1.2797809283577335 13.082935895545171 906.884670847731 40.101831275710055 0.35539568519988624
1.3068245829040563 13.084523078371062 806.8827419475278 41.93369166089861 0.36100236732167823
1.3338603764469112 13.085240613052825 718.7123502517566 43.85118486601777 0.3667508052679421
1.3608676017878654 13.085037360703529 640.681495372331 45.85904427198671 0.3726490056257401
1.3877983692556484 13.08377608814141 571.9056733147314 47.96257931509002 0.3787067973495995
1.4146545302703901 13.081487317499645 510.90084786028694 50.16651733821871 0.3849296865412519
1.4413777117825302 13.078040574455523 456.9685743595845 52.47613159196328 0.39132492586757195
1.4679711799542858 13.073442839225692 409.0886600844047 54.8978095847381 0.39790406256314165
1.4943797763743871 13.06757964635173 366.60115202358605 57.43773923022858 0.4046761543739081
1.5205914398637623 13.060439815699564 328.8999310396758 60.10254637625751 0.41165096886407077
1.5465739161445518 13.051954307461068 295.3424223327772 62.89933422655557 0.41883904185616605
1.5722906437079922 13.0420784515723 265.5198092958979 65.83572653664733 0.42625174064171517
1.5977138792511882 13.030752628936701 238.96867115726644 68.91991496695498 0.4339013325208245
1.6228011067279127 13.017937793636944 215.2773910910798 72.16071102384323 0.4418010592975061
1.6475535280286442 13.00360217842679 194.13681746355414 75.56760307332767 0.4499652184332377
1.6719018361340756 12.987669630930348 175.26387333528425 79.150556291649 0.4584081546777346
1.6958390990386263 12.970127629071992 158.39320464606243 82.91969871672555 0.46714288034758705
1.7193196812412779 12.950919716520737 143.300793033169 86.88779315443477 0.4761910641612756
1.742305881559416 12.929985099781613 129.8001912893918 91.06645519244013 0.48556720798200254
1.7647858679804547 12.907341931928144 117.70355271475994 95.46968752074382 0.4952928965953571
1.7867140733747864 12.882911016682208 106.8483766215607 100.11124021324612 0.5053859858061879
1.8080518654944218 12.856662422978639 97.10416058963828 105.00759084081625 0.5158720001330617
1.8287652359542288 12.828532499392907 88.3508064779429 110.17527471625814 0.5267734686322518
1.848845140815867 12.79857405900986 80.48086582578564 115.63187191190286 0.5381135921753739
1.868231939749026 12.766672663708578 73.39338829163822 121.39767375066505 0.5499220236061725
1.8869027560925975 12.732829336947082 67.02209256554131 127.49405122462159 0.5622283863474885
1.9048262350552698 12.697021789061425 61.26731002840082 133.94348437082533 0.5750621347025185
1.9219704100500736 12.659211892839853 56.08478074199484 140.77154425457883 0.58845918792324
1.938286845796943 12.619330305950612 51.40196294344964 148.00595445992764 0.6024579989181551
1.9537851253598209 12.57749624748519 47.17097737416744 155.6752729760801 0.617094557113313
1.9684030920808597 12.53357746047882 43.34720871071047 163.81306627971526 0.6324162093649145
1.9821211608864746 12.48758576039525 39.888249157306504 172.4530285895249 0.6484642795641283
1.9949132343869913 12.439517650156786 36.75129246306646 181.63456623524925 0.6652923598700958
2.0067523851583333 12.389366379746933 33.91036606723475 191.39960039159268 0.6829546271285528
2.017601996323753 12.337103294720308 31.3329441932714 201.7941459381671 0.7015102895670117
2.027442014361206 12.282726649575972 28.99731522563242 212.86820238614038 0.7210222290947881
2.0362534285254905 12.226271740798966 26.873353791723652 224.67708994368473 0.7415602771948806
2.0440039633459226 12.167686065910475 24.947001011846986 237.28209106815325 0.7632020088294387
2.0506670300962804 12.10699143203205 23.191939407940858 250.7499702556701 0.7860297467495
2.0562430037996613 12.044256179102273 21.597038923223216 265.15373838259893 0.8101314269473029
2.0606941859354158 11.97941660307728 20.145224976692045 280.5752869510214 0.8356073082909607
2.064004142307889 11.912530197245063 18.824637109357884 297.1041088742482 0.8625636707813984
2.066169844181208 11.843641803945397 17.621722286061885 314.840617296509 0.8911212106853675
2.0671670562476723 11.77276091009792 16.525788186259568 333.8942372179201 0.921405959540457
