M[M_sun], R[km], Lambda[1], P_c[MeV/fm^3], rho_c[fm^-3]
0.24162668629717493 15.618656898711224 2160425.4255784233 3.5677272577965504 0.1711233750220791
0.25364437843258386 15.277275089503751 1723204.8405262188 3.78482680114772 0.17388826273713281
0.2660407620606586 14.98124950632149 1383016.8858104674 4.011416611953291 0.1766668439286777
0.2788159297680597 14.7234776316501 1116441.0163092187 4.247752558826534 0.17945779657480115
0.29197128113202914 14.498401178488168 905884.9797048515 4.494459898617875 0.18226768823538086
0.3055083794653772 14.301142313213035 738640.522430014 4.751694192366041 0.18509222431074218
0.31942374219360026 14.128111582404939 605083.8639536072 5.020137832498142 0.18793802591372066
0.3337234219160108 13.975882148192458 497633.74795688625 5.300014691604805 0.19080171246901426
0.34840378405828587 13.84200416550611 410992.30588590674 5.592053643321167 0.19368958577049805
0.36346706680971036 13.72396225428314 340631.4349803343 5.896421653233114 0.1965967029745741
0.3789206420484368 13.619979699093117 283286.4263092795 6.213982952425016 0.19953074791751743
0.39475162900345734 13.528482957165739 236407.8531462639 6.544994749140415 0.20248789518869978
0.41097905311369204 13.44787125789715 197858.08711277452 6.890159892894715 0.20547186350914243
0.4275862368012149 13.377059815100607 166070.49803361605 7.250183332879876 0.2084857233664511
0.44458359093322775 13.314922984095118 139796.57875792074 7.625323839184369 0.21152501805429105
0.4619652417650754 13.260554510865296 117978.41044209621 8.016530846165203 0.21459591595853628
0.4797310508554717 13.213128365521586 99808.16925225341 8.42450923019222 0.21770006160200864
0.49788855407685223 13.17196432872559 84638.74131126529 8.84969969335027 0.22083492032735547
0.516426962950928 13.136384583011019 71930.00012728739 9.292975894171846 0.22400390475654594
0.5353466010215604 13.105827103924401 61271.07818339896 9.755222581170356 0.22720993234346698
0.5546536800624267 13.079794776867427 52303.16547405234 10.237249421413999 0.23045435415097648
0.5743360533073503 13.057832697847818 44724.226620226 10.739527068565675 0.23373385994281956
0.594394495001936 13.039510996976647 38322.025648148156 11.263301313648135 0.23705465121027444
0.6148317160568012 13.024494068507057 32898.983411729685 11.80950936753261 0.2404183370497345
0.6356370605147835 13.012437069517958 28290.20712497331 12.37913034223711 0.24382655060318503
0.6568077310237471 13.003021914339145 24369.138526240728 12.972852691762258 0.2472772358585828
0.678340225434938 12.995984356758111 21026.193868326347 13.592004389558857 0.2507751911233943
0.7002292997871659 12.991059570432864 18170.842147373292 14.237782714761012 0.2543230475710642
0.7224637244899378 12.988008658379995 15727.90297185058 14.911377494549455 0.25792279008854796
0.7450523161711914 12.98664084638399 13632.870230899613 15.613816605234742 0.26157429673801114
0.7679738477546442 12.986759514632608 11835.392357754905 16.346369952533646 0.26527949929453143
0.7912194752553465 12.988141322557539 10287.92410362159 17.110651996295932 0.2690430710018474
0.8147948105498376 12.990666727292918 8955.236849526596 17.90811796534955 0.27286744479910463
0.8386781742727177 12.994134415857935 7806.837277107785 18.740127978846676 0.2767536545961885
0.8628582485590371 12.998411881732858 6813.453697181192 19.608037064596104 0.2807022751589816
0.8873413456412411 13.00335118891316 5954.852946822264 20.513926226265326 0.2847196214714462
0.9120974762792128 13.008842795895186 5210.610054121069 21.459589827694096 0.28880870735038006
0.9371168429831986 13.014743538019866 4564.743478536555 22.44650524890283 0.2929693994685701
0.9624014733207971 13.020952028454047 4004.156190110968 23.476711643720314 0.29720560691152376
0.9879229296031088 13.027334447181431 3516.1964236752215 24.55262507742707 0.3015233769340308
1.0136656077291786 13.033798673444661 3091.728580594981 25.676179604823343 0.30592427901096614
1.0396300638850389 13.040247384037535 2721.1006638384683 26.84935331031033 0.310409696914884
1.0657815670551514 13.046584183268 2397.9063598718035 28.075235292601416 0.3149883058704584
1.0921141080331311 13.052704327045154 2115.5903367430847 29.35586984570722 0.3196604769121459
1.1186084009308623 13.058556582922416 1868.3017191520482 30.694034527693745 0.3244310436981853
1.145243991305984 13.064004707817693 1651.90875844639 32.093107357044204 0.3293079155492749
1.172008469623843 13.069013692584463 1461.8720196670606 33.555051768866925 0.3342889345204433
1.1988656591197198 13.073465885799838 1295.2768952853703 35.084399968288814 0.33938759776701016
1.225811216323129 13.077334352277326 1148.9183515173415 36.683162249047406 0.3446005867102341
1.2528073596199316 13.08049422178238 1020.0359112382814 38.35640428762372 0.3499424205873078
1.279851533084301 13.08293800292637 906.6207806115028 40.106379421775756 0.3554097556443761
1.3068942866168292 13.084527935436629 806.6182890082554 41.93853449392177 0.36101700793959324
1.3339297265011656 13.085238733633842 718.4825233930587 43.8563766831958 0.36676623803360536
1.3609400332069232 13.085032410703588 640.5421713397822 45.86457419455681 0.37266508588939073
1.3878727446194716 13.083773371120289 571.7183880353622 47.96847096339424 0.3787235668825387
1.4147291050665216 13.081480244379716 510.7388845251079 50.17283531727231 0.3849473902148158
1.4414532018760713 13.078027714868 456.82175734722944 52.48286587198074 0.39134341567738323
1.4680474335674336 13.073427822491633 408.955912043267 54.904989984903516 0.3979233909090201
1.4944571485334173 13.067561963726694 366.48002377957994 57.445397985145675 0.4046963777064922
1.5206695679299858 13.060412904079092 328.7875665214941 60.11071835221148 0.4116721480174818
1.546653166148785 13.051926861659423 295.2465089916348 62.908057159354385 0.418861242413643
1.57236909899218 13.042044166657034 265.42542714417175 65.84504129344515 0.4262750333377551
1.5977943555630099 13.0307155496971 238.88896516076008 68.92986583475317 0.4339257936837833
1.6228806948388244 13.017892612246825 215.20416357979346 72.17134602769659 0.4418267713370842
1.6476327470896697 13.003550330169245 194.0653068080695 75.57897432765736 0.4499922703778085
1.6719814390105583 12.987618315509968 175.20042061406818 79.16266101070914 0.45843639484881493
1.6959187379075986 12.970063933080498 158.3420591912088 82.93265500301771 0.46717265385575163
1.7193985706140054 12.95085235613743 143.25820205550121 86.90166770455033 0.4762224831908788
1.742381423076729 12.929915511726634 129.75747341755198 91.08125378151628 0.48560012939553215
1.7648637875700828 12.907260793064271 117.66207727986044 95.48555271131612 0.4953277083659976
1.7867906068896182 12.882824603474957 106.8107455150776 100.12818581966205 0.5054225536896692
1.8081286084912205 12.856563709480673 97.07067625349039 105.02570473595954 0.5159104650273666
1.8288380295020847 12.828427491485881 88.31847834423462 110.19465274826044 0.5268139829424617
1.8489179696908795 12.798458937992269 80.4535578943146 115.65269788669389 0.5381566114528007
1.8682936963530732 12.766519135712361 73.37752994095402 121.4199855601895 0.5499674422739982
1.886972717185894 12.732696441577266 67.0009555051377 127.51795413837537 0.5622763279951091
1.9048949443626566 12.696879440643709 61.24924299500147 133.9690675229537 0.5751126437883182
1.92203661752386 12.65905949903004 56.06656469089072 140.7990224894601 0.5885127259742333
1.9383495803538677 12.619171610456162 51.38488601700926 148.035492332773 0.602514816486174
1.9538455305757771 12.57732509975845 47.157841731551834 155.70695393222022 0.6171545956965069
1.9684610394439503 12.533392535335574 43.33224797723732 163.84708230718522 0.6324797515869213
1.9821754272927616 12.48739107151498 39.873436276416584 172.48969289664785 0.6485319761984384
1.9949648876450574 12.43931414747666 36.74096226940441 181.6740117347111 0.6653642103943084
2.006801112035428 12.389151702259268 33.89987961119229 191.4420832404883 0.6830309990555176
2.0176459291650803 12.336875265014585 31.32394727868418 201.8399487078582 0.7015915849651427
2.0274852494222517 12.282519769368541 28.988939305713952 214.0420987278318 0.7230538601966636
2.0315971364218695 12.233705159866503 27.464980758036404 226.43817403634293 1.6061265029545033
