M[M_sun], R[km], Lambda[1], P_c[MeV/fm^3], rho_c[fm^-3]
0.24162668629717493 15.618656898711224 2160425.4255784233 3.5677272577965504 0.1711233750220791
0.25363834463842944 15.277435513692675 1723123.8182395676 3.78473129318524 0.17388707227645506
0.2660295301341226 14.981510886007007 1383257.4167186092 4.011215837985018 0.17666441769375982
0.2787992337787142 14.723824576339783 1116667.6575037094 4.247439729269943 0.1794541682233688
0.29194840188897614 14.498743931426624 906188.400296532 4.494026807601421 0.1822628656663975
0.3054771174217608 14.301601748670253 738960.1838712823 4.7511261379450085 0.18508608823884687
0.3193867421126415 14.12854028451353 605348.3960113536 5.01943063342394 0.18793068845037206
0.33367897319639955 13.976321692033064 497950.903755971 5.299149733420261 0.19079300377532107
0.3483527982766876 13.842423268775082 411260.54240557016 5.591028769715301 0.1936796698364283
0.36340907951897894 13.724354830181493 340872.1121637632 5.895213843972624 0.1965853589743999
0.3788540553161708 13.62040421580277 283507.0827557557 6.212577596136687 0.19951793276032698
0.39467656810428703 13.528853409011155 236600.34867626187 6.543393308202694 0.2024738527151167
0.41089448744315704 13.448231954617638 198029.8320343814 6.888331458217873 0.20545629179216163
0.4274937986363139 13.377414276057415 164224.9129161754 7.248110752530244 0.20846857744037545
0.4444801073845788 13.315265971816467 139937.49119613293 7.623012844557828 0.21150662105109913
0.46185181263533953 13.260881624688638 118097.81555466958 8.013941136821208 0.21457588246307038
0.4796061355118035 13.213442952208588 99915.03540779336 8.421620619063292 0.2176783432845234
0.4977539365161793 13.172245147620712 84741.12909296299 8.846522833652473 0.2208119185057757
0.5162817618339645 13.136644858014154 72028.87123814414 9.289459386091405 0.2239791483204309
0.535188805801139 13.106061521742776 61355.01324180202 9.751342590419123 0.22718336787298526
0.554485960933181 13.080017875260515 52371.654486394655 10.232980665812667 0.23042592590391855
0.5741546040524622 13.058002252181954 44790.406215257455 10.734888097071819 0.23370407630885548
0.5942048806307407 13.03968285612271 38044.33097972232 11.258222379715178 0.23702291793915142
0.6146267604718009 13.024632437202019 32949.63467776579 11.803960478278093 0.24038459054494976
0.6354169639843557 13.012552825953755 28334.667758886226 12.373079634068631 0.24379072391113896
0.6565729693948773 13.003100051836325 24410.172651569694 12.966327949760162 0.2472399431088952
0.6780959703236907 12.996041154778592 21061.48670095284 13.584912984997903 0.25073570808269985
0.6999719686480627 12.991105330262515 18201.493993569435 14.230086638985206 0.2542812959843734
0.722191724882655 12.988032009143348 15754.98733338245 14.90303629737111 0.25787868703482797
0.7447672519057534 12.98666107865759 13657.292860057527 15.604868602836563 0.26152856048519624
0.7676743758803006 12.986738976685418 11855.765291292357 16.336694004256845 0.2652312671191832
0.790906170924316 12.988111582687932 10307.185799185345 17.100199559254314 0.2689922443400061
0.8144667802143468 12.990623734378197 8972.839710116272 17.89683727910137 0.27281391874946476
0.8383340463335668 12.994090235617753 7821.450829750276 18.72806907032419 0.27669825015097455
0.862501617626564 12.998339973177274 6827.356398924107 19.595043186271123 0.28064397982174766
0.8869628704847992 13.003282589974395 5966.903124150047 20.499934863695543 0.28465830915127033
0.9117089651989597 13.00876051476174 5221.250238305999 21.444534186640148 0.2887442434553048
0.9367156034262419 13.01465227200898 4574.69148077454 22.43044803342569 0.29290270693707016
0.9619787050602059 13.020839241872533 4012.5806927064614 23.459451413347384 0.29713550798746513
0.9874905620353492 13.0272342232061 3523.8196034910993 24.534080623209185 0.30144970862088893
1.0132213669323293 13.033687134797308 3098.3554636858034 25.656422693478458 0.3058480332851199
1.0391682034259655 13.040139944901656 2727.2745910506655 26.828142493717404 0.31032956626921804
1.065309065681316 13.04647160955001 2403.3627274909268 28.052471325650885 0.3149040920581769
1.0916236633245915 13.052593508300543 2120.369337911898 29.331633387012822 0.3195732405421075
1.1181084672159303 13.058432703990052 1872.590929237756 30.668036325403197 0.3243393333549639
1.1447258300573815 13.063894309007653 1655.8463734446802 32.06534321197255 0.3292122506310852
1.1714759818478433 13.06891662994418 1465.4266524992072 33.52537523628599 0.33418892154586693
1.1983239363699694 13.07340178239184 1298.398641755499 35.052582016100764 0.3392823844249906
1.2252522989261647 13.07725917264087 1151.7361671921917 36.64929518190747 0.34449133679414995
1.252235661106607 13.080441214635103 1022.5522955485559 38.320121178582916 0.34982754456053244
1.2792669666953018 13.082890452762992 908.9004375255096 40.06772973542618 0.35529018642683646
1.3062985500727813 13.084496146406794 805.3551689546729 41.897381106796736 0.36089259501560345
1.3333245409684253 13.085233544291203 720.2949279003238 43.81225839621868 0.3666350956684115
1.3603232805381786 13.085048548869528 642.2855487157129 45.81758341690478 0.37252844309119326
1.3872457338159963 13.083813364446655 573.1976561634391 47.91840706977051 0.3785810688803091
1.4140847735909474 13.081531685017064 512.1231413739665 50.11914959060614 0.3847969568924078
1.440815836102338 13.07813775126457 458.03644640607655 52.42564350357908 0.391186304493121
1.467395199913874 13.073556185322408 410.07360886733017 54.84397771424483 0.3977591568492245
1.4937985815314843 13.067723575348001 367.49157567442876 57.38032204286823 0.40452454136518806
1.5200038065413162 13.060619546144405 329.67950419754754 60.04128262445885 0.41149219277305105
1.5459834207339092 13.0521651907409 296.0702803299867 62.83394116901187 0.4186726113257388
1.5716960710862704 13.042321711895672 266.1741504247561 65.76589797788351 0.4260771257344773
1.5971118264808168 13.031030408740648 239.551720297046 68.84531909721439 0.433717961405583
1.6222049935740614 13.018252345425884 215.8052524140725 72.08098803664538 0.4416083145998664
1.646953952716937 13.003966859597671 194.62020280927734 75.48236253524384 0.4497624332131934
1.6713083506483408 12.988086942629664 175.71096140693172 79.05963691737064 0.4581957049604597
1.6952303200379288 12.970569827206486 158.7921849559077 82.82258000261206 0.46691970182540987
1.718709588367904 12.951394818135293 143.68311406125005 86.78379333644185 0.4759555557424056
1.7417255359808366 12.930572567059299 130.14583203678305 90.95553097001618 0.4853204424168478
1.764205578482911 12.907973255444073 118.00509067697963 95.35077099684977 0.49503196718916403
1.78613670075543 12.883590612904248 107.12194795461626 99.98422786470547 0.505111898668312
1.8074824417415225 12.857395297473698 97.34861684391055 104.871824431867 0.5155836998790804
1.8282128426073894 12.829351240525781 88.57758949810189 110.02952077686429 0.526467894588738
1.8482957059710667 12.799432445742017 80.68978043995642 115.47578480925687 0.5377911700828255
1.8676950536833539 12.767598036513304 73.59001148168885 121.2304541081533 0.5495816256931811
1.8863741426443446 12.73380056862771 67.19621242534882 127.31476080631667 0.5618685519085338
1.9043177751727924 12.69808462027266 61.4261550667965 133.75175507296677 0.5746836015371272
1.9214677917920555 12.660320072890293 56.23099246515261 140.5656173312729 0.5880579639665889
1.9378115056792804 12.620544926811288 51.53343284863519 147.78459756185825 0.6020322079115262
1.9533315186180173 12.578791793271924 47.29429248379952 155.43786107760693 0.6166446378004402
1.967971051961288 12.534946223960748 43.460464887347115 163.55751864683066 0.6319378684438397
1.9817141543310217 12.489039114853371 39.99080935995053 172.17828590992337 0.6479569972459872
1.994526419063514 12.441046843954375 36.84582061517868 181.3389901443392 0.6647539639221086
2.0063877306968783 12.390971921751278 33.996260537140735 191.0812728210399 0.682382365837205
2.0172779719853997 12.338826897373135 31.41507967853335 201.45095112165896 0.7009011526210868
2.0271357964222667 12.28450905698317 29.070240180152382 212.49848138411778 0.720375138384337
2.0359713662903793 12.228116853538046 26.941776878879313 224.27779943477952 0.7408700940444791
2.043763728694299 12.169664269441624 25.00777889893814 236.85109991143983 0.7624671293157202
2.0504679120365488 12.109081546137231 23.248642778421445 250.2832434857743 0.7852429686206435
2.0560668444728702 12.046395202317564 21.649387806290516 264.6487134595798 0.8092910361340696
2.06056088552081 11.98167183934356 20.194083376887047 280.0283814140775 0.8347090522318347
2.0639140007309065 11.914899111131254 18.867943340374826 296.511578948366 0.8616036661312965
2.0661126170478523 11.846088953466447 17.661623923145573 314.1969685556888 0.8900908556472783
2.0671513836524613 11.77530896595513 16.5639430933594 333.19522767767995 0.9203019298081357
