M[M_sun], R[km], Lambda[1], P_c[MeV/fm^3], rho_c[fm^-3]
0.24162668629717493 15.618656898711224 2160425.4255784233 3.5677272577965504 0.1711233750220791
0.2536446000717842 15.277289593760973 1723114.8046412696 3.784830997258749 0.1738883150396325
0.26604043085735984 14.98127742041751 1383011.9817204215 4.01142543305665 0.17666695052650594
0.2788171407844881 14.723473332562616 1116413.4950212778 4.247766303395559 0.1794579559910892
0.29197192447254994 14.49839922650193 905870.5480702012 4.494478927363609 0.18226790012488098
0.3055082122044048 14.301194702645065 738609.0024431468 4.751719151452134 0.18509249391650712
0.31942525092951113 14.128097813781345 605071.5200857162 5.020168905824306 0.18793834831147282
0.3337242763213458 13.975898776843463 497651.71342702664 5.3000526973038555 0.19080209512334084
0.34840604002783687 13.841985129017939 410980.45207642793 5.5920986763298135 0.19369002147724487
0.3634694828416547 13.723938443412617 340641.06687555974 5.896474725347389 0.19659720143910264
0.3789241274298158 13.619972245805746 283284.52051267354 6.2140447059567725 0.19953131103537095
0.39475574689740456 13.528438541709956 236378.50055430402 6.545065120019351 0.20248851224624165
0.4109828383338854 13.447828900768968 197844.4222018727 6.890240239712285 0.2054725477763571
0.4275918728790794 13.377040600684293 166069.1160833508 7.2502744096759955 0.20848647682144442
0.44458772122956414 13.314891359828977 139783.94741267207 7.625425394274342 0.21152582649810694
0.4619701917417969 13.260555337223293 117969.92445094638 8.016644651023901 0.21459679633112558
0.4797358392057064 13.213127829829956 99807.05075301665 8.424636172341904 0.2177010160295124
0.4978938662922626 13.17196218876575 84630.48123134497 8.849839304770283 0.22083593117368772
0.5164335132453048 13.13637460283956 71929.19177748296 9.293130434355644 0.22400499272907434
0.5353532831134982 13.105820740925118 61270.18425491033 9.75539309804693 0.22721109979226384
0.5546612789965915 13.079800156351004 52300.788606026355 10.237437026593668 0.23045560352828806
0.57434480985826 13.057820751646716 44321.24273289085 10.739730946921721 0.233735168905019
0.5944036270770438 13.039527205334561 38323.585501823145 11.263524531423878 0.23705604587897672
0.6148401758982237 13.024507392176519 32895.62953682521 11.809753243528144 0.24041982022268546
0.6356467867196822 13.012433313916414 28288.22090374363 12.379396277535033 0.24382812522581723
0.6568178714699412 13.003011248275138 24366.852175530286 12.973139465136608 0.24727887493759362
0.6783508847322073 12.995969741690647 21024.560102582298 13.59231607354878 0.25077692649634503
0.7002398750386208 12.991062940583245 18169.783352440434 14.238120980741545 0.25432488268051767
0.7224760647670834 12.987990718943566 15726.044000516067 14.911744121291921 0.2579247285823364
0.7450646548730933 12.98663925211017 13631.792515199933 15.614209908399774 0.26157630704290247
0.7679861674784808 12.98675235793708 11833.972578924466 16.34679525867456 0.26528161933897343
0.7912320521152106 12.988147904020714 10286.755559747942 17.111111440166443 0.2690453051218089
0.8148069502165641 12.990681055906363 8954.382113903916 17.908613823244572 0.272869797609361
0.8386930025413644 12.994134436404455 7806.222048125749 18.740658051353016 0.2767560900050883
0.8628725158438595 12.998411257549662 6812.702086846136 19.608608244500584 0.2807048376829887
0.8873572347935047 13.003355556974396 5954.270950665225 20.514541262944366 0.2847223166575367
0.9121135697256797 13.008849880962932 5179.465424075794 21.460251658807667 0.2888115411195507
0.9371350014651725 13.014742620591324 4564.319252068241 22.447211117364734 0.29297233124430033
0.9624197399187692 13.020957150031723 4003.806935743102 23.477470408430985 0.2972086884804647
0.9879414011171377 13.027339336163864 3515.8891703650074 24.553440310216853 0.30152661546689546
1.0136852131874832 13.033798654328553 3091.375789251773 25.677048149852467 0.3059276308935059
1.0396501395038156 13.040259638898373 2720.8594065398806 26.850285786656375 0.31041321964260876
1.0658026326305186 13.046585142063147 2397.710609299004 28.076236065639556 0.3149920081650959
1.092135843184679 13.052711401179534 2115.2361285311454 29.356935368289818 0.31966431213920904
1.1186346725546634 13.058550395006494 1867.9500484731998 30.695177522243924 0.32443507568552526
1.1452673148030836 13.064006376049017 1651.7439987883122 32.09432409280659 0.32931209613351076
1.1720312280339138 13.069014564712878 1461.6765597930778 33.55635651934037 0.33429333166406416
1.198888546781892 13.073478574225463 1295.0679464612913 35.08579889229466 0.3393922236294483
1.2258362412791581 13.077335079254137 1148.7870780811375 36.684651286710896 0.34460539011523844
1.2528319308378 13.080503776897533 1019.930697377464 38.35798948241217 0.3499474122137295
1.2798753533527805 13.082940473862925 906.4906781230052 40.10807879286389 0.3554150129307996
1.3069195359045465 13.084523432632851 806.5906643087382 41.94034397614239 0.3610224782784815
1.3339583108171083 13.085236800002201 718.4361023704024 43.85831656589089 0.3667720043682086
1.3609683072756449 13.085033850002835 640.4589274330966 45.866640412679544 0.3726710941710171
1.3879003990755159 13.08376990253485 571.6732963717702 47.970672343247834 0.378729832720223
1.4147501517156469 13.081460142644792 510.7203723380001 50.175196000234315 0.38495400510862793
1.4414810255601689 13.078025390885616 456.7490929352644 52.48538211019001 0.3913503243247529
1.4680760928836143 13.073422378743736 408.9077149510803 54.907672921138676 0.39793061289084963
1.4944861530859368 13.067554762785107 366.42775321762343 57.44825966482169 0.40470393411748373
1.520698969439669 13.060405550543729 328.75345124458016 60.11377180420133 0.41168006159046466
1.546682391725144 13.05191515973967 295.20664565567205 62.91131648487498 0.41886953765622076
1.5723986448850382 13.04203196390872 265.3975641787443 65.8485217639071 0.4262837366825988
1.5978127121412546 13.030693740982333 238.85231226964166 68.93358399958102 0.43393493365404584
1.6229111935100387 13.017874796830924 215.1760986159529 72.17531983325071 0.44183637872858983
1.647662230798913 13.003533407555675 194.0428462013261 75.58322324853022 0.45000237845987273
1.6720108557237388 12.987597747373073 175.18340359854784 79.16718400565145 0.4584469469442689
1.6959480143337557 12.970041000263068 158.32407921868375 82.93749620607299 0.46718377892627283
1.7194287215044035 12.950825521985731 143.2411309767597 86.9068520398473 0.4762342231595849
1.7424067614887602 12.929869908102702 129.74808015872634 91.08678340688657 0.4856124307765991
1.7648918020727435 12.90722899013308 117.64497472991849 95.49148090211968 0.4953407161403213
1.786818814841323 12.882787874808436 106.79700952198196 100.13451773794412 0.5054362176946193
1.8081571563778327 12.85652706762971 97.06040599429471 105.03247321962512 0.5159248379166178
1.828865951421341 12.828388044646653 88.30408615237133 110.20189361573284 0.5268291216702196
1.848945178102443 12.798415354484952 80.43940072406238 115.66047982731874 0.5381726862567904
1.8683202558288787 12.766472747727295 73.36863292801984 121.42832273394272 0.5499844137045264
1.8869973374730387 12.732648435277172 66.9886618998466 127.52686165790642 0.5622941556902088
1.9049203305369629 12.69682657490201 61.241190791963945 133.97862715183666 0.5751315174639715
1.9220604338009395 12.65900431239017 56.05896131918437 140.80929029058132 0.5885327315554649
1.9383732149094441 12.61911112873373 51.37794184407004 148.0465298024447 0.6025360476082359
1.953868712223159 12.577261683875015 47.15244591276348 155.7187922541405 0.6171770305015786
1.9684842415394874 12.533322941693422 43.329093070944616 163.85979322996457 0.6325034956963083
1.9821965328645361 12.487317500786952 39.86909521382641 172.5033934728127 0.6485572728143368
1.9949820431058236 12.439234687471917 36.73447870559812 181.6887516353317 0.6653910593276692
2.0068180309342902 12.389070345694249 33.89393705513774 191.45795819692958 0.6830595376551035
2.017662250210322 12.336790370599433 31.31596757760158 201.85706432377387 0.7016219634950767
2.0274973178567137 12.282400035670095 28.98350816347935 212.93595134646478 0.7211407518475841
2.036305199701301 12.225925789138254 26.86233932140197 224.75029658674393 0.7416868166202114
2.0440475744045203 12.167325341887045 24.935716065583755 237.36111205331034 0.7633367468681228
2.0507051692565113 12.106612066115247 23.181895529130692 250.83537651619804 0.7861734529555364
2.0562753882645404 12.04385885664771 21.588768816418042 265.2463391511706 0.8102855200061975
2.0607190126702455 11.979006111344862 20.137239007281856 280.6754342162244 0.8357715731149655
2.064022093227264 11.912101943239257 18.81690543504652 297.21276147744703 0.8627397074670751
2.0661801748661746 11.843192860960917 17.61431352668327 314.9586477655559 0.8913101542515051
2.0671699442920137 11.772293311359995 16.52036751045309 334.0224240607086 0.9216084204191487
