M[M_sun], R[km], Lambda[1], P_c[MeV/fm^3], rho_c[fm^-3]
0.24162668629717493 15.618656898711224 2160425.4255784233 3.5677272577965504 0.1711233750220791
0.2536450160280014 15.277268973393035 1723267.123525669 3.784838929249004 0.17388841390806453
0.2660418318757607 14.98123939774117 1382963.8310528232 4.011442107797699 0.17666715203091074
0.2788179268520509 14.723472904913326 1116411.8951454938 4.24779228513766 0.17945825734014395
0.2919735563812372 14.498356722936359 905826.6129523017 4.4945148980092835 0.1822683006663689
0.30551098722351017 14.301145476983857 738603.648847396 4.75176633251194 0.18509300356199943
0.31942818072589757 14.12807428059239 605042.069140539 5.020227644972935 0.18793895775281108
0.33372616118714865 13.97592882653536 497638.48974076426 5.300124541145617 0.19080281847161687
0.348410324861032 13.841948790584151 410958.1950684657 5.592183804371387 0.193690845114465
0.36347453481334235 13.723903356103067 340620.99351099867 5.896575050300683 0.196598143712295
0.37892907086991645 13.61994033829477 283266.64165212633 6.21416144208059 0.19953237552826072
0.3947631866885843 13.52838486702742 236368.04299422397 6.5451981462414315 0.20248967870649967
0.41098991142662133 13.447797758453301 197835.15278253175 6.890392124344958 0.20547384128962484
0.42760015418766645 13.37697597014607 166047.7172389308 7.250446578204895 0.208487901127561
0.44459651579852016 13.314864117998694 139783.14399044993 7.625617370963151 0.21152735475599047
0.4619797966841927 13.260534055599999 117959.25221310246 8.016859784730306 0.21459846056427273
0.4797474839861802 13.21308407340396 99792.0341796752 8.424876140906846 0.21770282025765086
0.49790597860227315 13.171936672615555 84622.69589732133 8.850103223490883 0.22083784205798868
0.5164460216472532 13.136346333918926 71925.00696604163 9.293422574686092 0.22400704941521352
0.5353665432856712 13.105798330748536 61261.288616661295 9.755715441086586 0.22721330672333945
0.5546742086345138 13.079771637163569 52291.5496622291 10.237790761363229 0.2304579536079171
0.5743596524791861 13.057834955137452 44718.16709398667 10.740116357474065 0.2337376433601503
0.5944181279461751 13.039518147496207 38320.9960785733 11.263946501914639 0.23705868235823907
0.614858246481862 13.024491145892608 32892.22576188085 11.810214267157733 0.2404226240155543
0.635664065043167 13.01241425097248 28283.80619540209 12.379899003065232 0.24383110190098525
0.6568368172470364 13.002997652853116 24363.973903033126 12.973681583945833 0.24728197346640088
0.6783706778853537 12.99597120837872 21021.68468250893 13.592905284710396 0.25078020706623383
0.7002609734711162 12.991046395367718 18166.531481541264 14.238760444027983 0.25432835180005564
0.7224985888551388 12.987995916590496 15724.211520034818 14.912437199518711 0.2579283931481792
0.7450881767787196 12.986652324025984 13629.952521622477 15.614953417413421 0.26158010736779125
0.7680114800512 12.986760866671089 11832.657420851858 16.3475992683466 0.26528562712553594
0.7912581598072563 12.988140819862922 10286.528157369617 17.111979986332273 0.2690495285676989
0.8148361567415195 12.990672873389565 8953.448648024378 17.90955120933878 0.2728742454393517
0.8387207393569194 12.994144924199853 7804.982730751314 18.74166011943808 0.2767606939894552
0.8629033074610264 12.99841089524766 6811.6270529897265 19.60968802555695 0.28070968197960633
0.8873875465088789 13.003363990614899 5953.163917721521 20.515703954821916 0.2847274117536224
0.9121456184275808 13.00885764064005 5209.211862045582 21.461502815330057 0.28881689820946094
0.9371677287259076 13.01475348619978 4563.50729018024 22.448545526251387 0.29297787361911826
0.9624543692946548 13.02097660848072 4003.092725141533 23.478904817830866 0.29721451404324223
0.9879772369478247 13.027355212653848 3515.147252275275 24.554981472937477 0.3015327377747602
1.0137216666002977 13.033807068948512 3090.536259230838 25.67869009970585 0.30593396749421176
1.0396884563108384 13.040271116714562 2720.3462842631834 26.852048599653507 0.310419879232683
1.0658420481981687 13.04659892090673 2397.2952795356364 28.078127994901784 0.3149990072341108
1.0921773354144988 13.052725228368333 2114.7976435955056 29.358949707783793 0.31967156252457657
1.1186787676781915 13.058559088548199 1858.5621056615764 30.69733832468992 0.32444269805617004
1.145309942366297 13.064022655192462 1651.2049593771928 32.096624305005754 0.3293199994360653
1.172076338956321 13.069019045604417 1461.4235387978072 33.55882312659776 0.33430164438483945
1.1989339160324954 13.073484760428787 1294.7994957067663 35.088443538543714 0.3394009687576287
1.2258825109055176 13.077341624483509 1148.571618375332 36.6874662964558 0.34461447090092134
1.2528805437589972 13.080504086081827 1019.7064509955184 38.36098628145014 0.34995684884660727
1.2799247464646244 13.082946194017028 906.2841808271793 40.11129144843914 0.3554249518138705
1.3069707967026074 13.084524729718884 806.4437458684846 41.94376480267443 0.3610328199553408
1.3340084537342656 13.085240023688561 718.2485994137077 43.861983922865015 0.3667829056497531
1.361017976016222 13.085032344318277 640.326981667842 45.87054661469051 0.37268245287584756
1.3879524597341888 13.083764631213295 571.5498685233869 47.97483407756609 0.37874167835952977
1.4148028484811523 13.081461071341524 510.57701849547976 50.1796589095264 0.38496651067228715
1.4415347710859105 13.078015899965804 456.66635487656686 52.490139108648435 0.39136338526022646
1.4681307988461154 13.0734136667386 408.82480381774445 54.91274507582526 0.39794426621905876
1.4945410320095287 13.067541905301132 366.35509511276825 57.45366974943541 0.40471821972155847
1.520753592099028 13.060389734047027 328.692616811705 60.11954445189579 0.41169502245082423
1.546737705993029 13.05189784038309 295.146550616576 62.91747835632619 0.41888522010895457
1.5724548214972025 13.042009913430435 265.33407847798793 65.85510173232974 0.42630019070364816
1.5978709305385932 13.030666000470415 238.8021557291465 68.94061335459892 0.43395221317198085
1.6229662033518961 13.017847615136116 215.12686282508426 72.1828325057601 0.44185454196910784
1.6477194041596073 13.003497947449024 193.98711884294795 75.59125605896087 0.4500214883255232
1.672067518513612 12.987557773064298 175.14459693341925 79.17573498495614 0.45846689628115717
1.6960040366091484 12.969995886439154 158.28142101366336 82.94664879870354 0.4672048115574811
1.7194844697382365 12.950777820800514 143.20742236752187 86.91665337012151 0.4762564183503098
1.7424644527956406 12.929823824958918 129.71021744954572 91.09723755418993 0.4856356874063158
1.7649477223815053 12.907168744894326 117.61330036558138 95.50268859559316 0.4953653083223585
1.786873746679176 12.882729667996907 106.76347783706875 100.14648873708268 0.5054620505914132
1.8082104570503439 12.856457892546105 97.03819457343756 105.04526961188391 0.5159520110824016
1.8289239453188753 12.828322611164012 88.28666670023657 110.21558312418402 0.5268577427908755
1.8489966871025352 12.798332975742957 80.4234270584654 115.6751923268235 0.538203077203874
1.868369672604541 12.766385942616271 73.34875448008009 121.44408499688552 0.550016499895653
1.8870455476287313 12.732555397520597 66.97066123008453 127.54370225741829 0.5623278608167984
1.9049680145661256 12.696726500132748 61.22493029032365 133.99670068433258 0.5751672002289006
1.922106077561436 12.658897473129521 56.043833403444594 140.82870275831672 0.5885705544248019
1.9384172563506992 12.61899525452494 51.36349027823978 148.06739748160066 0.6025761876273241
1.9539105255015392 12.57713794067812 47.13914909180318 155.74117410505482 0.6172194463495161
1.9685230084810812 12.533198316564917 43.31897838894798 163.88382491415413 0.6325483870820915
1.9822345621472044 12.487183957060623 39.858941041557564 172.52929631523074 0.6486050995807036
1.9950187965347892 12.43909184323159 36.72649058233221 181.71661955312976 0.6654418211263489
2.00685131607998 12.388917907658032 33.88507195841294 191.4879722007607 0.6831134941897545
2.0176939189947176 12.33662865141043 31.31188376522133 201.88942409205654 0.7016793988917505
2.0275258738362814 12.282233722865785 28.976809743301207 212.97079576151717 0.7212017100670431
2.0363307240811617 12.225748790490085 26.85641818868103 224.78794824474977 0.7417518984074334
2.0440697103730683 12.16714170139711 24.93071197461568 237.40175442104533 0.7634060458385825
2.0507238240424406 12.106416866051477 23.1762890181178 250.87930329351596 0.7862473649904709
2.0562909222264314 12.043655124937285 21.58345416565852 265.2939236387616 0.8103646348121685
2.0607318591024795 11.978790295748846 20.133053805726476 280.72694347079704 0.8358560602811386
2.0640303142444663 11.911879246835802 18.81266216814233 297.2686457719703 0.8628302500376129
2.066185676176406 11.842962087343821 17.61043038283172 315.019355967753 0.8914073361428382
2.067171866489343 11.772056685531771 16.515721065419534 334.0883566664301 0.9217125557032264
