M[M_sun], R[km], Lambda[1], P_c[MeV/fm^3], rho_c[fm^-3]
0.24162668629717493 15.618656898711224 2160425.4255784233 3.5677272577965504 0.1711233750220791
0.25364443022660516 15.277260205545057 1723188.395933723 3.7848273997527566 0.17388827019845582
0.2660408142020657 14.981252166420724 1383000.4725922071 4.011417870345487 0.17666685913560473
0.278816594087449 14.723476394253824 1116373.8274178533 4.247754519584319 0.17945781931663665
0.2919709065700356 14.498387589529276 905844.1706107834 4.494462613198273 0.18226771846286363
0.30550692253446704 14.301188466742559 738640.0415091726 4.751697752947652 0.18509226277181906
0.3194238724527006 14.128121666118387 605083.9024423639 5.0201422653145595 0.18793807190590192
0.3337226939749451 13.975906462773608 497691.7045239853 5.300020113366857 0.1908017670571618
0.3484041058789304 13.84200145006274 410990.61446190777 5.5920600675712295 0.19368964792688467
0.36346749137483547 13.72394388994973 340654.60108096886 5.896429224308965 0.1965967740837207
0.3789217608792105 13.619970206162622 283296.36106559896 6.213991761955122 0.19953082824982463
0.3947530077654072 13.528462335955396 236397.07116531662 6.545004787983768 0.20248798321579417
0.41097958764940973 13.44786905511238 197857.602339042 6.890171354860897 0.20547196112405627
0.42758731026311475 13.37705379789109 166075.57943154348 7.2501963255355895 0.2084858308513621
0.4445839683798042 13.314904082196788 139791.34547715719 7.6253383266243695 0.21152513338362885
0.4619659732002628 13.26055244125676 117976.94909554192 8.016547081098404 0.21459604154886994
0.47973110004152203 13.213137228297436 99801.59714449552 8.4245273392268 0.21770019775663274
0.49788936024689256 13.171986925380224 84636.01561332597 8.849719609719665 0.2208350645303795
0.516428024415082 13.136399120307706 71933.94089186237 9.292997940202344 0.22400405996197506
0.5353471457261647 13.105827990136602 61270.46530550042 9.755246906352442 0.2272100988865396
0.5546547375772456 13.079821818195823 52301.898513554406 10.237276184322477 0.2304545323815067
0.5743376044904642 13.057829106493113 44726.311074602374 10.739556152917816 0.23373404667336953
0.5943954729296334 13.039510224641276 38322.77567607548 11.263333156855309 0.23705485016720912
0.6148326761832255 13.024494444505503 32898.47755772807 11.809544157725508 0.24041854863215348
0.6356381224061152 13.012424218005822 28289.123278937073 12.379168279284098 0.2438267752312553
0.6568092335756593 13.00302178436762 24368.91260495091 12.972893601449323 0.24727746968157827
0.6783417149541139 12.995977214598938 21025.819273012432 13.592048852847546 0.2507754386830733
0.7002295569626464 12.991053316234144 18170.79296496701 14.237830970077296 0.25432330935851016
0.7224651154895327 12.987995258316612 15728.35644187796 14.911429795639362 0.25792306662412534
0.7450539639338098 12.986654660255523 13632.756065354763 15.613872711820123 0.26157458351765867
0.7679759554575974 12.986757894882649 11835.344347798426 16.346430624463117 0.2652798017288828
0.7912213090779966 12.98813842539494 10287.482477776886 17.11071753809681 0.2690433897094307
0.8147963521297947 12.990668503717163 8955.550270022117 17.90818870173999 0.2728677804382194
0.8386794596363946 12.994124409747029 7806.479373039913 18.74020359607249 0.2767540020182157
0.8628608883756036 12.998409481621877 6813.451914543336 19.6081185459307 0.28070264071434237
0.8873426017027806 13.003361865558977 5954.785332605079 20.514013963912234 0.2847200059514189
0.9120997876313582 13.008851515917273 5210.6289654496095 21.459684240715493 0.2888091115995969
0.9371197869516754 13.014744786606363 4564.76769138518 22.446605943992182 0.2929698176986442
0.9624040967840127 13.020950552247763 4003.9956051937183 23.476819884617928 0.29720604650997046
0.9879255570805092 13.027338653747524 3516.248584974206 24.552741373659615 0.3015238389237543
1.0136681043339297 13.033798054629917 3091.754669694922 25.67630350620231 0.30592475717024964
1.039633700695272 13.040249925021367 2721.1306865342517 26.849486331665133 0.3104101994456093
1.0657851129609874 13.046579512395562 2397.9073022418506 28.075378056657712 0.3149888340167812
1.0921171886119556 13.052704194816068 2115.512815925934 29.356021846456848 0.3196610240215156
1.118616163607244 13.058545061520551 1868.394626141772 30.694197580007533 0.32443161887578775
1.145247313648147 13.06400269605711 1651.8099703743649 32.09328092872296 0.329308511924467
1.1720117104827705 13.069009956460913 1461.8930413410183 33.5552378960409 0.33428956178821007
1.1988686697296855 13.073473528261603 1295.1855352867062 35.08459952951731 0.3393882576618916
1.2258147638542887 13.077335802794257 1148.9071632530552 36.683374665183834 0.3446012719318089
1.2528109635667037 13.080498349263106 1020.0291470869134 38.35663042077314 0.34994313265891674
1.2798548297358137 13.082933015406342 906.6097508850012 40.10662184238401 0.35541050561275056
1.306898360138802 13.084522326575668 806.620770635743 41.93879262208877 0.3610177883001483
1.3339361484969494 13.085234078010016 718.482715541314 43.856653413202814 0.36676706061830044
1.360944484132764 13.085036043272625 640.5003859902079 45.86486894652215 0.37266594298806693
1.3878761390962207 13.083770326814475 571.7074139541147 47.9687849963913 0.3787244607218204
1.414733525580661 13.081481801914274 510.72723948012515 50.17317207506663 0.38494833384726695
1.4414573439924403 13.078024951943876 456.81281676986674 52.48322481993922 0.39134440121399106
1.4680515023692915 13.073430864327719 408.94067913655954 54.90537271254094 0.397924421142988
1.494461274628417 13.0675612498234 366.46461420636786 57.445806210735924 0.40469745564696297
1.5206737576700948 13.060412403712025 328.78559994317845 60.11115393431703 0.411673276907274
1.5466573283759313 13.051924899896752 295.2454322521288 62.90852210950497 0.4188624257487414
1.5723733483187998 13.04204348233806 265.4175097707112 65.84553779009542 0.426276274888749
1.5977986161278324 13.030712885913223 238.88818750013556 68.93039623866383 0.43392709751946434
1.6228845332748376 13.017890292403049 215.1961415615309 72.17191289889675 0.44182814185043195
1.6476364238271188 13.003548828560595 194.0680988393465 75.57958044417417 0.44999371231463803
1.6719857128740363 12.987615748224894 175.19412682462138 79.16330622401802 0.4584379001240828
1.695922997025832 12.970061050658682 158.34063560029108 82.93334560877237 0.4671742408657645
1.7194028481566304 12.95084868911825 143.25379558102912 86.9024072581367 0.4762241579158846
1.7423855532401111 12.929908990814342 129.75502578749007 91.08204259075528 0.4856018842057387
1.7648680674907404 12.907255871313158 117.66199967641975 95.48639837583086 0.49532956394277067
1.78679540847673 12.882819496735541 106.81153900840758 100.1290890758195 0.5054245028772703
1.8081326756929412 12.856558098106637 97.06816164959416 105.0266702680219 0.5159125153367249
1.8288420007360409 12.828420979768039 88.31534703267549 110.19568566564858 0.5268161424979563
1.8489216114408866 12.798453128633291 80.45050726931264 115.65380798775803 0.5381589045385328
1.868297805199172 12.7665126852563 73.37457558425245 121.42117486482765 0.5499698632624099
1.886975763960626 12.732689511750324 66.9987248666002 127.51922480239352 0.5622788711285382
1.9048991269636344 12.696871579078437 61.24816299095157 133.97043120967496 0.5751153361293269
1.9220389320748719 12.659053016410438 56.064280079829594 140.8004871960829 0.5885155797797343
1.9383537102557458 12.619161453696817 51.383775445620195 148.0370668315447 0.6025178451128976
1.9538491120314436 12.577314871593384 47.15646226041644 155.70864267142215 0.6171577960263398
1.9684642252884013 12.533384787323765 43.331372916101245 163.84889552151088 0.6324831386863504
1.9821782164649575 12.48738016239274 39.8736954663045 172.49164728316708 0.6485355847594579
1.9949670426039454 12.43930285093828 36.73918742569275 181.67611437884116 0.6653680403897462
2.006802843304775 12.389139137182713 33.89649786343294 191.4443477979183 0.6830350700775688
2.017648759029225 12.336862400272317 31.32253024352615 201.8423902424956 0.7015959184482865
2.0274841082791424 12.282476320376304 28.986057240190064 212.92015060899845 0.7211131094027148
2.036293906798546 12.226007724241741 26.865103055039715 224.733222921226 0.7416573043828973
2.044037243813396 12.167409169521875 24.938440878737538 237.34268227082865 0.7633053223960029
2.050695313594834 12.106700289158228 23.184147198674747 250.81545744731815 0.7861399367495954
2.056267959607207 12.043951535581728 21.59079201061141 265.22474204069675 0.8102495811596033
2.0607135460663013 11.979099182597782 20.139134468873657 280.65207696510436 0.835733261786776
2.064018261438551 11.912202001046195 18.818894851970928 297.1874204320473 0.8626986504328907
2.066175052554866 11.843299354568614 17.614713710007447 314.9311194049931 0.8912660867606559
2.0671696064337217 11.772401593348851 16.52139801679304 334.02979199669534 0.9215386484392228
