M[M_sun], R[km], Lambda[1], P_c[MeV/fm^3], rho_c[fm^-3]
0.24162668629717493 15.618656898711224 2160425.4255784233 3.5677272577965504 0.1711233750220791
0.25364458453025734 15.277256993294438 1723256.5913117253 3.784831155795194 0.17388831701571283
0.2660404844137101 14.981270967954673 1382962.323413167 4.011425766333699 0.17666695455396236
0.2788168943715584 14.723490595490668 1094039.2068592715 4.24776682269035 0.17945796201412623
0.2919719182866045 14.498392343427051 905869.1277453264 4.494479646304758 0.1822679081304575
0.30550791625493995 14.30119468625999 738595.5525309081 4.7517200944532245 0.18509250410271866
0.31942556898151864 14.128091238080946 605056.9887004672 5.020170079833724 0.18793836049227367
0.33372376510681523 13.975914793049718 497676.8677207803 5.300054133232594 0.1908021095807606
0.3484061252654885 13.841984409703281 410980.00425956637 5.59210037776511 0.19369003793909942
0.3634698750918468 13.723938695778767 340642.6241716725 5.896476730517314 0.1965972202720829
0.37892416426828796 13.619948204694566 283294.04261743155 6.21404703912963 0.1995313323110981
0.39475686316798403 13.528417198810967 236394.36420455336 6.54506777877473 0.2024885355599345
0.4109829685623837 13.447853132014462 197850.88621249187 6.890243275381175 0.20547257362938723
0.4275922701198972 13.377041169205468 166071.53998499791 7.2502778507481285 0.2084865052885523
0.4445881079279366 13.31490935095756 139789.82881238937 7.625429231240819 0.21152585704282725
0.4619704841620887 13.26053392542354 117966.68662668823 8.016648950815647 0.21459682959349097
0.47973554650314815 13.213157076711028 99804.81216929527 8.424640968492062 0.21770105208985668
0.4978946614808468 13.171960953977251 84634.31546632414 8.84984457959624 0.22083596936568142
0.5164334446256669 13.136385167612069 71930.50345040331 9.293136273227141 0.22400503383509368
0.53535349490555 13.105827770014718 61268.42762024502 9.755399540557807 0.22721114390110353
0.5546612100589428 13.079804136348145 52299.35156727252 10.237444114743946 0.2304556507326038
0.5743451087841861 13.057819827885032 44322.90934073657 10.739738649914182 0.23373521836061667
0.5944042350739451 13.03949465936699 38322.865809710725 11.263532965109766 0.23705609857279875
0.6148411272435187 13.024486073708797 32896.70808489054 11.80976245773587 0.240419876260442
0.6356476583905674 13.012438856026634 28288.688781862176 12.379406325201822 0.24382818471879786
0.6568182727249678 13.00300634927616 24366.8145881135 12.973150300121606 0.24727893686592478
0.6783513066867031 12.995974776438706 21023.922296492437 13.592327849724496 0.2507769920629364
0.7002402402125067 12.991054074630304 18169.35003526288 14.238133761257902 0.2543249520154427
0.722476555350475 12.98799026274209 15726.338598164511 14.911757973356705 0.2579248018234245
0.7450651264917189 12.986639245980209 13631.753623666007 15.614224768374122 0.26157638299723435
0.7679880662750073 12.98675216453517 11834.240403030615 16.346811327812084 0.26528169943959373
0.79123394283969 12.98814348500275 10287.155547351975 17.111128799125225 0.26904538953254725
0.8148075280872951 12.990676926072728 8954.403530479656 17.90863255803073 0.2728698865045817
0.838693826209937 12.99413498626131 7806.336990488606 18.7406780788664 0.2767561820211497
0.8628736899739892 12.998415852794507 6812.630955560669 19.608629825172848 0.28070493450185496
0.8873574859072818 13.003362550446628 5954.274333568539 20.514564500656498 0.2847224184887943
0.9121139358744912 13.008857836997786 5210.18612889049 21.460276664554655 0.28881164818691796
0.937136402700346 13.014745382699518 4564.484531717459 22.447237786975442 0.2929724420146798
0.9624204700641469 13.02096098120669 4003.67988200991 23.47749907662458 0.2972088049105171
0.9879418977496627 13.027349510511081 3515.708101980237 24.553471111949808 0.3015267378275582
1.0136850237033415 13.033800952420428 3091.3701222132827 25.67708096588702 0.3059277575369032
1.039650797867728 13.040257775416661 2720.8258825978446 26.85032101821834 0.31041335274110576
1.0658031716645593 13.046587110066177 2397.679794174957 28.076273877668854 0.3149921480482342
1.0921366234903855 13.052716192382876 2115.224230043555 29.356975626763234 0.3196644570449945
1.1186357360501693 13.058550821204747 1868.0185777624522 30.695220707860532 0.3244352280255862
1.145267954334073 13.064009228478687 1651.7402957133331 32.0943700646056 0.3293122540880841
1.172032526154596 13.069014269358187 1461.7072617038411 33.55640581662709 0.3342934978010032
1.1988896834883762 13.073476933743109 1295.0980292489357 35.08585174777309 0.33939239840818636
1.2258366528340996 13.077338157914056 1148.7844272475377 36.684707546984384 0.3446055716021718
1.2528339820940866 13.08049979749916 1019.9014288860672 38.35804937582584 0.3499476008123474
1.279876502062847 13.082943943396598 906.4688641506116 40.10814300025142 0.3554152115670063
1.3069216954221585 13.084524838980624 806.5817353374608 41.94041234390662 0.3610226849645905
1.3339604653037036 13.085234287936192 718.416493238398 43.85838986064291 0.3667722222381169
1.3609687839128635 13.085032834402941 640.4621659593464 45.866718480826506 0.3726713211825837
1.3879009989378908 13.083769949566918 571.6484988488281 47.970755518282445 0.37873006946322096
1.414750325146786 13.081460704531645 510.7067439062427 50.17528519431595 0.3849542550402741
1.4414823407885688 13.078022761086777 456.76394940593235 52.48547718170966 0.39135058535552564
1.4680773671129024 13.073424567048809 408.9036326016207 54.90777429111622 0.39793088576059815
1.494487409010756 13.067555491071575 366.4337460879326 57.448367788382825 0.404704219623256
1.5206997617090596 13.060404348859485 328.7534162399486 60.113887173631504 0.41168036059120505
1.5466835674043522 13.051915144127529 295.208005888624 62.911439632978045 0.4188698510779338
1.5723997821797706 13.042032517317935 265.3912145604513 65.84865326770216 0.42628406552402676
1.5978140949363244 13.030694083741201 238.8504711571452 68.93372448437692 0.43393527899292034
1.622911490271673 13.017873725666561 215.17493367570793 72.17546997713951 0.4418367417285158
1.6476640556641733 13.003531423377515 194.04646966563504 75.5833837873482 0.45000276037791626
1.6720123303176082 12.987596416564145 175.1834970719918 79.16735490005277 0.458447345638952
1.695948903156316 12.97004088000025 158.32130610836694 82.93767912364154 0.4671841992703126
1.7194298354407698 12.950824563777259 143.24043898431418 86.90704792233016 0.47623466673703263
1.7424075525349052 12.92986884604032 129.74922900824777 91.08699233581359 0.48561289556655773
1.7648944747479447 12.90722653222088 117.64823994542637 95.49170489048296 0.4953412076208045
1.7868195551083903 12.882787132450346 106.79701649813484 100.13475698078626 0.5054367339702934
1.8081581827832562 12.856525390416088 97.05957831095647 105.03272895771559 0.5159253809769889
1.828867003185871 12.828386545818843 88.30363593560038 110.20216720246091 0.5268296936672917
1.8489460704186174 12.798412513640297 80.4394143622258 115.66077385810391 0.5381732936229303
1.868320841377207 12.766470686639998 73.367297927052 121.42863774381331 0.5499850549491847
1.8869991846052092 12.732646271904226 66.99143297272309 127.5271982178838 0.5622948292883568
1.9049212601413328 12.696824823196648 61.23970472594867 133.9789883513586 0.5751322305839793
1.9220613020076378 12.65900201479706 56.05840887058632 140.80967824798515 0.5885334874440203
1.9383741931095404 12.61910812965536 51.378467451923726 148.0469468413737 0.6025368498033649
1.9538690478602159 12.577259509941957 47.15180680458976 155.7192395528639 0.6171778781774346
1.9684836747895251 12.533321796423072 43.32772189886163 163.8602734995133 0.6325043928438165
1.982197326210714 12.487315239238827 39.868600835594506 172.5039111360552 0.6485582286229139
1.9949836884738008 12.43923330183662 36.73532189002286 181.68930856909247 0.6653920737902367
2.0068186487138555 12.38906783498607 33.893817750417035 191.45855801845087 0.6830606159614461
2.0176637883369133 12.336786558021434 31.31997374407611 201.85771102333342 0.7016231113230033
2.027498092256769 12.282396856797574 28.984250932483977 212.93664769944417 0.72114197007546
2.036305501060492 12.225922025474565 26.862061571554204 224.75104903968403 0.7416881172530317
2.044048497221337 12.167321765137677 24.936439687010107 237.36192427252237 0.7633381317764911
2.0507046572415106 12.106608618862227 23.181597893283303 250.83625437077157 0.7861749300504172
2.056275710870713 12.043854646420128 21.58853781329503 265.2472909600294 0.8102871038714374
2.060719167216827 11.978998896828568 20.136752157326253 280.67646359764063 0.8357732615400746
2.064022631793643 11.912097572316828 18.81685077101748 297.21387828843393 0.8627415169009853
2.0661791186603957 11.843189204874726 17.613982181242644 314.95986097582625 0.8913120963625278
2.0671703682786804 11.772288585185605 16.520462572374633 334.0237416733859 0.9216105014831224
