M[M_sun], R[km], Lambda[1], P_c[MeV/fm^3], rho_c[fm^-3]
0.24162668629717493 15.618656898711224 2160425.4255784233 3.5677272577965504 0.1711233750220791
0.2536443748267194 15.277262512174813 1723264.190686913 3.7848284514410935 0.1738882833072436
0.26604013390767245 14.981262148422788 1382978.5429179338 4.011420081213625 0.17666688585264143
0.2788169456626337 14.723493577384973 1116399.0303370878 4.247757964438986 0.1794578592717595
0.29197120332285703 14.498385081890822 905835.2978909106 4.494467382445004 0.18226777156953286
0.3055075050022709 14.30119695981588 738618.3636847478 4.751704008535908 0.1850923303441112
0.3194240126658174 14.128115166844063 605064.6712752477 5.0201500533348975 0.1879381527096188
0.33372337901128746 13.97592337920371 497642.606412526 5.300029638869708 0.19080186296316984
0.3484046712925352 13.841996679111276 410987.6432241992 5.592071354349973 0.1936897571295739
0.36346780861227773 13.723957255360615 340651.39962605346 5.89644252595215 0.19659689901556843
0.3789224536343318 13.61996343259431 283293.09458217496 6.2140072394461825 0.19953096938590698
0.3947545616812606 13.528431001061511 236396.65664263477 6.545022425263634 0.2024881378709118
0.4109804378848695 13.447847492654525 197853.38415525 6.890191492435861 0.20547213262409506
0.4275895791599496 13.377021347799653 166066.439338399 7.25021915239141 0.20848601969209027
0.4445849538458741 13.314900414696877 139792.66559882747 7.625363779679682 0.2115253360063154
0.4619671708523499 13.2605494296745 117975.75816976107 8.016575604340817 0.21459626219921007
0.47973274498443186 13.213127367115051 99799.31266295431 8.424559155096631 0.21770043696749608
0.4978903386731595 13.17196453238015 84636.00177426817 8.849754600914853 0.22083531788158323
0.5164291050275266 13.136386674415771 71931.9721446973 9.29303667302276 0.2240043326434455
0.5353488495064135 13.105826788584428 61270.59709510071 9.755289643440994 0.2272103914872699
0.5546566462697124 13.079787533697058 52300.310669636514 10.237323204282397 0.2304548455160972
0.574339973590804 13.057825199926098 44724.93672809576 10.739607251451522 0.23373437474178427
0.5943969495749105 13.039513947090294 38321.63349863046 11.263389102458216 0.2370551997163485
0.6148356847616322 13.024504104894948 32898.75267825255 11.809605280928597 0.24041892036321008
0.6356404014077146 13.012434316962201 28289.09688149696 12.379234931240664 0.24382716988243588
0.656811696091252 13.003020336686415 24368.377141103985 12.972965476080986 0.24727788048749927
0.6783442478042792 12.995972318947267 21025.547773490853 13.592126970857038 0.25077587362322107
0.7002333961278627 12.991060013567571 18170.739449843153 14.237915750360843 0.2543237692956861
0.7224685140402155 12.988006087936768 15727.70769221894 14.911521684009832 0.2579235524725776
0.7450554743718015 12.986646349718285 13631.899999585285 15.613971286129154 0.2615750873641395
0.7679792850328343 12.986765268531231 11834.805531714166 16.346537219705546 0.26528033307943133
0.791224903435694 12.988144952891767 10287.622150468356 17.110832689304598 0.2690439496507607
0.8147988753679506 12.99066711657169 8955.184683631258 17.908312979419293 0.2728683701269214
0.8386842396387276 12.994132485907722 7806.422743140695 18.74033644898285 0.2767546124085989
0.8628642178676615 12.99841461051506 6813.250654742308 19.608261701609166 0.2807032829635881
0.8873463031922217 13.003357013094554 5954.53895708968 20.51416811143235 0.284720681449753
0.9121026863661463 13.008858422178301 5210.446982342841 21.45985011633978 0.2888098218309847
0.9371239741099435 13.014751646199889 4564.542395105361 22.446782856711764 0.2929705524933625
0.9624086950880273 13.020954474947056 4003.908476626841 23.47701005473249 0.29720681884731076
0.9879303528390205 13.02733564456261 3516.0103393742434 24.55294569637223 0.30152465060089495
1.0136724839371865 13.033798386745433 3091.601189295717 25.67652119056562 0.3059255972561313
1.0396383631696116 13.040251859261174 2721.070324017798 26.849720039127174 0.31041108235031734
1.0657899437603653 13.046583474769756 2397.8235002685324 28.075628881305335 0.31498976192621964
1.092123183689196 13.052707600570995 2115.3254600855025 29.356288899270897 0.3196619852476749
1.1186217700190717 13.058544957346266 1868.2823203683718 30.694484049590738 0.32443262941580525
1.1452531672680266 13.06400500761598 1651.831930263357 32.093585880039775 0.32930955970715503
1.1720176138093652 13.069011798714888 1461.8308041225737 33.55556490643461 0.33429066384695305
1.1988749966784968 13.073465882432298 1295.197764975122 35.08495014256031 0.3393894170441734
1.2258208329156872 13.077333913054751 1148.8722513403752 36.68374786335513 0.3446024758113396
1.2528173053388874 13.080501625611644 1019.9460757734515 38.35702771873504 0.3499443837121112
1.2798606008506679 13.082936379771674 906.5660784196924 40.10704775624366 0.3554118232479437
1.3069045979776963 13.084526124278275 806.5933243405827 41.9392461330007 0.3610191593323417
1.3339424802174278 13.085235345022506 718.4547611155432 43.857139606236146 0.366768505835436
1.3609505826220334 13.085032622974323 640.5040359420012 45.865386802862666 0.37266744884395964
1.3878828217836385 13.083771248542 571.6946077477269 47.96933672815298 0.37872603112851705
1.4147407846695903 13.081482263773841 510.7089125584527 50.17376373273592 0.3849499917372583
1.4414645184760582 13.078024322264449 456.7999299562743 52.48385546419889 0.3913461327268461
1.4680588818060072 13.073424988445018 408.94045877911407 54.90604513607312 0.3979262311862039
1.4944685870312076 13.06755979781787 366.46428224965035 57.44652343244657 0.40469934950743347
1.5206795999394422 13.06041407753136 328.7648624209637 60.111919219591115 0.4116752602824472
1.5466646578018344 13.051922858636825 295.23082719735777 62.909338992484145 0.41886450478086845
1.5723807950421897 13.042040813064876 265.4088203671095 65.84641009820118 0.42627845620255045
1.597805120304678 13.030709715822772 238.87729317270495 68.93132811961925 0.43392938826358546
1.6228933697946373 13.01788344557826 215.19192274094834 72.1729088505319 0.4418305497431054
1.6476444771156098 13.003543759281438 194.0588947515978 75.58064534733131 0.4499962456940125
1.671994003564883 12.987610035174516 175.1954779256649 79.16443981774049 0.4584405447852682
1.6959298894655859 12.970056033512579 158.33446935897877 82.93455895419295 0.46717702913000714
1.7194113513500242 12.950842461273902 143.25259601557872 86.90370660188294 0.4762271002901806
1.742389059151893 12.929887046038738 129.75207976271008 91.08342847364524 0.4856049672850437
1.7648750835006224 12.907248663069723 117.65765779256516 95.48788415002232 0.495332824063104
1.7868026265566743 12.882809367414202 106.80658823987453 100.13067603506323 0.5054279274664699
1.8081397455525257 12.856550154037249 97.06550486436053 105.02836664233186 0.5159161175911278
1.8288490526643224 12.828412202023124 88.31280652399911 110.19750043202636 0.5268199366917102
1.8489280927484573 12.798442561412829 80.44671156050359 115.6557583614533 0.538162933337565
1.8683039624099131 12.766500834810877 73.3722650136745 121.42326439469555 0.5499741167794937
1.886981995881726 12.7326771885181 66.99532880023443 127.52145727606377 0.5622833392478359
1.9049052631470118 12.696858264261303 61.24463259467601 133.97282711909378 0.5751200663984429
1.9220454869762476 12.659038443246905 56.0631150533412 140.80306059197625 0.5885205937335476
1.9383590340472496 12.619146692200754 51.37898612810983 148.03983312637644 0.6025231662186382
1.9538543211300128 12.577300661442868 47.15436150609975 155.71160968060806 0.6171634188057489
1.9684694913903362 12.5333664196785 43.33180972860145 163.85208122697924 0.6324890896106404
1.9821836381600013 12.487362020447149 39.87091186948241 172.49508102102703 0.6485419247809793
1.9949722202457651 12.43928314541801 36.73780657347215 181.6798085978656 0.6653747694609224
2.0068068606886937 12.389119286243467 33.897470643056685 191.44832649063073 0.6830422226211751
2.017652342668512 12.33684226582787 31.32151567340767 201.84667987562403 0.7016035321239521
2.02748828039545 12.28245376139593 28.986083477676548 212.92476959123604 0.7211211900357946
2.036296678427634 12.225984152990318 26.86440545426315 224.73821401086192 0.741665931600154
2.0440398139612896 12.167384653278111 24.93741945677177 237.34806978578112 0.7633145086039025
2.050698477934172 12.106674606525422 23.183731951643296 250.821280315751 0.7861497344192927
2.056270035081934 12.043924468429445 21.590186417620142 265.2310554394621 0.8102600870219496
2.060714526055719 11.979071989716411 20.13837843213434 280.658904893558 0.8357444611786264
2.0640195495874445 11.912172984618124 18.81790152119402 297.19482826842017 0.8627106524551591
2.066178565338072 11.843267306128807 17.615736409586837 314.9391666423149 0.8912789688048383
2.0671692084237705 11.77237102488573 16.520921397349536 334.001266515904 0.9215750037671826
