M[M_sun], R[km], Lambda[1], P_c[MeV/fm^3], rho_c[fm^-3]
0.24162668629717493 15.618656898711224 2160425.4255784233 3.5677272577965504 0.1711233750220791
0.2536392226161565 15.277452271367942 1723335.213070431 3.784752662539325 0.17388733863514483
0.26603195356251247 14.981437321150715 1383262.5135517258 4.01126075937467 0.17666496054224295
0.2788036769162275 14.723732561566127 1116612.0109255922 4.247509721161303 0.17945498002383303
0.2919536802917117 14.498656125563123 906127.2926256725 4.494123705296012 0.18226394464471554
0.3054845848047602 14.301486637803858 738871.6349775599 4.751253230014706 0.18508746107575846
0.31939580494350994 14.128417180513754 605256.7258733179 5.01958885464959 0.18793233005665597
0.33368856769253963 13.976275168595622 497899.7056151918 5.299343247494757 0.19079495214095332
0.34836426620256405 13.842276486146421 411177.6224265253 5.591258058344008 0.19368188826698615
0.36341967903018574 13.724328199556842 340830.9213102825 5.895484056248575 0.19658789686527864
0.3788679007912425 13.620317456240203 283464.7758468027 6.212891999884564 0.19952079974394088
0.3946947900647395 13.528731250646988 233419.55354345308 6.543751575546924 0.20247699423573012
0.4109136877084996 13.44813949639129 197996.83617429502 6.888740502576222 0.20545977538556612
0.4275140924107188 13.37732607423572 166204.67922162765 7.248574409749099 0.20847241315772186
0.4445026162036059 13.315173676265687 138280.73983208314 7.623529831807634 0.2115107366020293
0.46187715923184486 13.260800731007897 118068.48521168054 8.014520467729742 0.21458036405601683
0.47963429677568875 13.213379118205676 99890.36761732498 8.422266808060511 0.21768320172242683
0.497783384735628 13.172197441038383 84716.58352445463 8.84723349704898 0.22081706401240953
0.5163138999074367 13.136585497295508 72005.12226489023 9.290246019530041 0.2239846862688798
0.5352240670839294 13.106006441582531 61332.65438814128 9.752210523741319 0.22718931020393288
0.5545230735301112 13.079980480907196 52355.96574461166 10.233935552557208 0.23043228507713467
0.5741937234413925 13.05797019305115 44774.72890682572 10.735925787714717 0.23371073860421923
0.5942466483560732 13.039669169898682 38366.94350651002 11.259358472254899 0.23703001626589867
0.6146729608403503 13.024597732950161 32938.27587065946 11.805201679388137 0.24039213911859714
0.6354657511646123 13.012520285196839 28326.50416051888 12.37443306862975 0.2437987376976042
0.6566282523987252 13.003082462126702 24401.306140966066 12.967787402905294 0.24724828474459584
0.678150460936438 12.996029451266448 21053.28569373902 13.586499170790487 0.25074453954022835
0.7000294144646576 12.991088429825655 18194.715296567992 14.231808056051038 0.2542906347559693
0.7222531424413343 12.988010680310792 15748.880793132708 14.904901990128456 0.2578885516557143
0.7448316015612509 12.986657855842475 13651.686321276784 15.606870001783822 0.2615387903090342
0.7677413152636482 12.98675427976666 11851.292991281227 16.33885819772205 0.2652420550808088
0.7909760909849105 12.988117368642438 10302.60333346271 17.102537400714017 0.2690036124713651
0.8145383549802747 12.990644045558177 8969.308748863028 17.89936034126448 0.2728258904990211
0.8384112806901607 12.99408666845066 7817.951790720166 18.730766165618636 0.27671064190833794
0.8625820536855894 12.998354163502425 6824.310067687711 19.597949362826558 0.28065701800312226
0.8870464165669204 13.0032954374857 5964.182242384879 20.503064098065323 0.2846720219414742
0.9117962391690099 13.008786969341152 5218.905857504237 21.44790141200386 0.28875866093920755
0.9368051198308832 13.014672469660407 4572.293997277648 22.434039228455074 0.29291762271670585
0.9620734367427108 13.020860150000436 4010.7483665306786 23.46331161633305 0.297151185418768
0.9875867504594953 13.027253115580173 3521.9539400441568 24.538227989265913 0.3014661841373852
1.0133230815309486 13.033721718804472 3097.051899403246 25.66084117578937 0.30586508505930937
1.039270378736971 13.040168087530004 2725.8967486424185 26.832886072765806 0.31034748665668876
1.065415116683867 13.046503882649956 2402.1589318444 28.057562187754673 0.3149229253707753
1.0917330739297872 13.052627737923768 2119.284790441534 29.337053498287023 0.3195927496147294
1.1182212733430383 13.05846082287892 1871.7699107542853 30.6738503503933 0.32435984270485596
1.1448436919080673 13.063926122605679 1654.9296751041365 32.07157840569066 0.32923381435651256
1.171595795107712 13.06893621354574 1464.624220429956 33.532011699872285 0.3342112871124008
1.1984465616897653 13.073415411242657 1297.7107647357343 35.05969726566958 0.33930591262636617
1.225378349291917 13.077278884522483 1151.0814264571893 36.65686858185924 0.34451576741005724
1.2523634876411078 13.080455090137642 1021.9753135043783 38.32823979679555 0.349853262563252
1.2793968566148521 13.082898920798268 908.3769672415798 40.076372421667195 0.3553169240107312
1.306432916124293 13.084508699231945 808.2515825088562 41.906583558270114 0.36092041542057274
1.3334613239376083 13.085231013492708 719.8925691386336 43.82212370247055 0.36666442046055275
1.3604617000584622 13.085041798844696 641.913395681368 45.8280909211425 0.37255899748618
1.3873850768777467 13.08380380784577 572.8958804258837 47.92960161572906 0.3786129321717852
1.4142343574873462 13.081532365060845 511.80886536344656 50.131153823139435 0.38483059407485987
1.4409592561801972 13.0781186522963 457.75725451726936 52.43843838058437 0.3912214344315514
1.4675396205975426 13.073533593101553 409.79194244031555 54.85761984128717 0.39779587900173946
1.4939457163969219 13.06768637208501 367.2530396884528 57.39487260824169 0.4045629628744306
1.5201530986877791 13.060570584093053 329.4876154366303 60.05680780925197 0.4115324290968386
1.546133035683898 13.05211067917802 295.8867692542829 62.85051259806584 0.41871478693016817
1.5718465433408055 13.04226305591576 265.99800754670105 65.78359321619389 0.4261213748561951
1.5972626628768762 13.030957437196797 239.39997479903727 68.86422219688289 0.4337644288907104
1.6223539959447453 13.018184024639847 215.67708611678313 72.10119014011248 0.44165715682795287
1.6471060667171389 13.003874067929386 194.49976358598252 75.50396254124374 0.44981381911558344
1.6714591579036204 12.987982941915686 175.5939921708138 79.08274221685902 0.45824981714360535
1.6953944375159746 12.970475484732603 158.70288895170663 82.8471893700714 0.46697625408015736
1.71885894465257 12.951266418655727 143.59550630689986 86.81014599056826 0.47601523153824943
1.7418749105453044 12.930428452071686 130.05756535013927 90.98363788475923 0.4853829699563677
1.7643546818606772 12.907816808062655 117.92997383029642 95.38090264911112 0.49509808276229644
1.7862833051303373 12.883417588362615 107.05260163791408 100.01641048213735 0.5051813473605266
1.8076266025276526 12.857203017488834 97.2878843269097 104.90622473305822 0.5156567489907657
1.828356348189243 12.829155424845567 88.52099282308365 110.06646597556899 0.5265453745237069
1.8484341849285235 12.799214421770607 80.63309659332032 115.51533281096468 0.5378728626073876
1.8678322207851579 12.767365886439954 73.54036611642975 121.27282218624389 0.5496678715740051
1.8865122471228326 12.733576490604499 67.14807297898753 127.36018657693266 0.5619597210677015
1.9044477733845715 12.69781428762833 61.38647777967726 133.80033177746083 0.5747795070347312
1.9215862318907018 12.66000220905789 56.19436665345308 140.61779035681718 0.588159616860748
1.937939301458811 12.620266188876732 51.501269910432825 147.8406789896106 0.6021400833280329
1.9534434841072945 12.578451801461524 47.263763689450684 155.49800920728998 0.6167586245271023
1.9680814755867504 12.534598292639009 43.43472663266256 163.62228635359892 0.6320591417020216
1.9818184571607684 12.48867025510402 39.963239250115905 172.24788948905692 0.6480855126445594
1.9946247692206178 12.440660880497834 36.82129480641547 181.41387045240916 0.6648903594415323
2.0064788989081577 12.390561921704855 33.974410993601644 191.16191554369067 0.6825273382268783
2.0173622190280347 12.338394347268892 31.39590066741229 201.53789199008196 0.7010554640865281
2.0272156576323774 12.284066269303052 29.05027305614281 212.59228025011194 0.7205395198257033
2.036040589659787 12.227640939805882 26.92437744139449 224.37894728972967 0.7410449305197494
2.0438254700226555 12.169164353041527 24.991449948620136 236.9602761456473 0.7626532848241436
2.050514175614855 12.108540046929502 23.2344999075787 250.40147250022298 0.7854422760146473
2.0561106528209883 12.045845644084219 21.636207019474355 264.77663835620245 0.8095039105943295
2.060594447041191 11.981100113821752 20.181988392025232 280.1669737277166 0.834936781062623
2.0639399057409618 11.91430147103819 18.858267643356577 296.66166309956776 0.8618468293484889
2.0661277773140108 11.845468833180973 17.651866626329614 314.3599971443194 0.8903518323524204
2.067155255787782 11.774663880604598 16.554186512765078 333.372274603287 0.9205815612847235
