M[M_sun], R[km], Lambda[1], P_c[MeV/fm^3], rho_c[fm^-3]
0.24162668629717493 15.618656898711224 2160425.4255784233 3.5677272577965504 0.1711233750220791
0.2536437217927753 15.277276547014537 1723309.4837442408 3.78481585142906 0.17388812625417205
0.2660395201083771 14.981260564334093 1382991.301652844 4.0113935934190055 0.17666656576327547
0.2788142311284526 14.723542084785793 1116417.3766165564 4.247716692682235 0.1794573805815764
0.2919678075796381 14.498465382286291 905928.1056966797 4.494410243665768 0.18226713531596483
0.3055047771300368 14.30119963093076 738626.6138020151 4.751629062541754 0.18509152078433777
0.3194198726536921 14.128156252516796 605127.667889413 5.020056747995332 0.18793718463070827
0.33371744652575824 13.975947115870001 497668.91637909453 5.299915517636278 0.19080071395171055
0.3483978924064448 13.842052895002126 411021.3605927562 5.591936132229612 0.1936884488183611
0.3634590182019974 13.72403974135192 340662.65674678783 5.896283164907147 0.19659540226290936
0.37891329916621214 13.620019334834213 283321.41475675546 6.213821810902004 0.19952927850085458
0.3947451885023339 13.528475861729778 236413.68229179698 6.5448111216822475 0.2024862850239602
0.41096911148972737 13.447920498567234 197879.6174763569 6.889950234509871 0.20547007797035738
0.4275772423801852 13.377079664499835 166090.59399316084 7.249945676095587 0.2084837572927809
0.44457160498891113 13.3149635950562 139812.27740933234 7.625058840818384 0.21152290849690442
0.4619520132495608 13.260617164694114 117987.24372420817 8.016233883920052 0.21459361871548635
0.479716583245669 13.213166454303769 99815.73299920875 8.424177988327385 0.2176975711262527
0.4978725970749566 13.172003402709018 84649.59786561769 8.849335393171943 0.22083228263841087
0.5164112077680253 13.136405878260463 71942.31530260912 9.29257264004904 0.2240010658223814
0.5353276844380651 13.10586153271573 61280.36969704714 9.754777638848902 0.2272068860328126
0.5546325090717632 13.079828147471739 52302.683400337955 10.236759890491111 0.23045109406599668
0.5743158178421012 13.057865472755324 44332.2077015657 10.738995076034861 0.2337304443859811
0.5943726361657863 13.03952856508802 38331.83508628926 11.262718858945743 0.23705101202275364
0.6148084166274331 13.02450953490574 32904.27959397325 11.808873009685426 0.24041446693228402
0.635612022063428 13.01243774021437 28296.36114494274 12.37843642559377 0.24382244187124916
0.6567801292673721 13.003045775459773 24179.11980069799 12.972104402904964 0.24727295894632478
0.6783127281616036 12.995975704995224 21030.166289730198 13.591191102389237 0.2507706629583265
0.7001993847238512 12.99105504273229 18174.49986650193 14.236900068425053 0.2543182591716141
0.7224331014848773 12.987992041015943 15731.331048132732 14.91042084799416 0.2579177319375995
0.7450191667866003 12.98665764519627 13635.317825222817 15.612790353361472 0.2615690512191748
0.7679393141200879 12.986756169879792 11837.362626815484 16.345260197440354 0.26527396744372755
0.7911826193640921 12.988137306925932 10289.948309973397 17.109453168167764 0.26903724150661734
0.8147549519231015 12.990671178671052 8957.38659274981 17.90682412509216 0.27286130561959737
0.8386380588581324 12.994130449391914 7808.447419879358 18.73874486521811 0.2767472999047074
0.862818277068837 12.998401686942229 6815.598944505722 19.606546693357014 0.2806955888031598
0.887292175248778 13.003345671592454 5956.073533957245 20.512321424059973 0.2847125889793538
0.9120515612239994 13.008838818293077 5211.778923567981 21.457862929942458 0.28880131327429465
0.937070022086369 13.014740740337965 4565.826110710205 22.44466344932582 0.29296174968168887
0.9623487960500048 13.0209289675443 4004.9309766721076 23.47473182852933 0.29719756629377275
0.9878732123537549 13.027330687319179 3517.069249274018 24.550497927522493 0.3015149267772654
1.013613999000063 13.033784585443318 3092.3043643509113 25.673913354237104 0.3059155331134986
1.0395768840147643 13.04023921169861 2721.8420846926647 26.846920253059015 0.310400505262708
1.0657270330720054 13.046566920969504 2398.6649356511575 28.072624039285607 0.3149786457089832
1.092057009806381 13.052705420803443 2116.0257800156655 29.35308965121741 0.3196504699190307
1.1185558259009436 13.058530239450258 1868.8736677267686 30.691052198614866 0.3244205233391095
1.1451853782784989 13.063983880322086 1652.3441048869922 32.08993262723635 0.3292970074903534
1.1719475441725447 13.069000797330098 1462.2984485129361 33.5516473983537 0.3342774614408084
1.1988029253242478 13.07345655385776 1295.6190414454761 35.08074988876582 0.3393755279435664
1.2257471955040309 13.077323530815713 1149.2359704962482 36.67927705294159 0.34458805366901213
1.2527418307372906 13.080492457033182 1015.8853979395686 38.35226184580061 0.34992935914834333
1.2797826104215941 13.08293022082155 902.991393456286 40.10194544580015 0.35539603840400324
1.3068248036097194 13.084527214042781 806.8639391074075 41.933813228185144 0.3610027348380028
1.3338633279293148 13.085233073752683 718.7439499255257 43.851315193417264 0.3667511926683738
1.360870042976612 13.085032007714673 640.7298366373786 45.85918308642879 0.37264940927928114
1.3878002340932587 13.083775999807125 571.8891639915856 47.962727209468056 0.37870721830474074
1.4146562380255738 13.08148857739784 510.8945808134302 50.166675934172495 0.38493013094459205
1.4413794216977007 13.078036709839452 456.95279694908436 52.47630063773511 0.3913253900039254
1.4679730468137695 13.07344420734707 409.08737063059107 54.897989828811895 0.3979045477477721
1.4943817506460353 13.06757906071702 366.59282187346406 57.43793148171502 0.4046766620237536
1.5205930472866969 13.060438813011015 328.8883642664045 60.10275151032174 0.41165150050609234
1.5465759390709235 13.051954705382386 295.3415923625956 62.89955319038673 0.4188395991365248
1.5722916646546587 13.042078097211878 265.50602682364064 65.83596035603021 0.42625232533586577
1.597715841472194 13.030751837842827 238.96298262205667 68.92016475351042 0.43390194654462244
1.6228018960530937 13.017938391172205 215.27583511024733 72.16097798301506 0.4418017047194436
1.6475549517238015 13.003598976244938 194.12690368601156 75.56788851320006 0.4499658974879297
1.6719041670608714 12.987668903515491 175.26364624102624 79.1508601423108 0.4584088635578523
1.6958410939940738 12.970125496877932 158.38595542894257 82.92002394255682 0.46714362771560014
1.7193217839005754 12.950919140856465 143.30620282425758 86.8881414295194 0.47619185283298765
1.7423082174194464 12.929983645417938 129.8021560717098 91.06682666174814 0.48556803436447993
1.7647877427928749 12.907341167939416 117.6994417213466 95.47008576256694 0.4952937704268401
1.7867157487596224 12.882908959255102 106.84838886511048 100.11166557433816 0.5053869037169707
1.8080544827580627 12.856660442816276 97.10303843451835 105.00804552677057 0.5158729656596387
1.8287669196445238 12.82853018067833 88.34705902975355 110.17576113283673 0.526774485599927
1.8488470023945272 12.798571512553025 80.48082998436928 115.63239467253081 0.5381146720184404
1.8682334345630782 12.766669673794649 73.39456758891113 121.39823380643095 0.5499231636744744
1.8869044004906257 12.732825606867 67.02082748067191 127.49465171970932 0.5622295915363381
1.904827975388323 12.697018754163292 61.26715516427088 133.9441265385282 0.5750634025409552
1.9219724086955803 12.659208060398221 56.08349039305245 140.7722339892787 0.5884605317887283
1.9382875748284127 12.619327319507658 51.40077475525476 148.00669589181675 0.6024594250992824
1.953786853523925 12.577490842339197 47.17188890677894 155.67606819960383 0.6170960641414934
1.9684049318851198 12.533571626123388 43.34769333576053 163.81392011359017 0.6324178043336887
1.9821223017101053 12.48758081200954 39.88725108462775 172.453948894877 0.6484659788073368
1.9949151566417025 12.439513068873755 36.75280791554869 181.63555634807253 0.6652941633743321
2.006753529002713 12.38936053509111 33.909328721273624 191.40066674109698 0.6829565441178456
2.0176031020153355 12.337097580977561 31.332680305846583 201.79529561649142 0.7015123301326309
2.0274426340653644 12.28272045843724 28.996334306146068 212.86944032629367 0.7210243947970226
2.0362553311721356 12.226264500170235 26.874040164717997 224.67842760299652 0.7415625893708462
2.0440048195092424 12.16768003526581 24.94664644999234 237.28353496295426 0.7632044708027128
2.0506677797096775 12.106984140358666 23.19206471571372 250.75153081694765 0.7860323725797271
2.056244477327605 12.044248417042393 21.597631466502833 265.15543039481 0.8101342425539261
2.060694270266312 11.979409359631866 20.144346692016654 280.5771168452033 0.8356103097433232
2.064004575395505 11.912522211443262 18.82528260101253 297.10609416797786 0.8625668873129676
2.0661700366329154 11.843633553589788 17.62155942378609 314.8427739304317 0.8911246630321005
2.067167549801892 11.772752774319677 16.526514618303512 333.89657941507255 0.9214096588537659
