M[M_sun], R[km], Lambda[1], P_c[MeV/fm^3], rho_c[fm^-3]
0.24162668629717493 15.618656898711224 2160425.4255784233 3.5677272577965504 0.1711233750220791
0.2536449596842514 15.277275843380016 1723214.392310022 3.78483839981563 0.17388840730893293
0.26604168669932304 14.981229293268326 1382970.808984625 4.011440994813896 0.17666713858115832
0.27881757647596617 14.72350775907501 1116376.2846047585 4.247790550939994 0.1794582372260644
0.29197362646077724 14.498353939264849 905780.8983678827 4.4945124970813115 0.1822682739314787
0.30551011174858267 14.301140501085591 738630.6211023016 4.751763183319768 0.18509296954471366
0.3194286233347584 14.128048798509829 605042.4045465789 5.020223724308591 0.18793891707440527
0.333725491909758 13.975942790845641 497651.69763269136 5.300119745775602 0.19080277019019778
0.3484100130547245 13.841953350657121 410956.35130856925 5.592178122312364 0.19369079013898088
0.36347376854543717 13.723954956420284 340611.89914910065 5.896568353881807 0.1965980808181118
0.3789275922070807 13.619962613534936 283254.4907680609 6.214153650250765 0.1995323044761547
0.39476290431738154 13.52840492635523 236389.25930054 6.545189267080154 0.20248960084825043
0.4109894185762414 13.447824991485051 197836.60767388475 6.890381986420375 0.2054737549508049
0.42759844715871587 13.377000893655325 166054.16102889116 7.250435086366258 0.20848780605852504
0.44459595289935844 13.314881829037056 139776.69277351414 7.625604556963085 0.21152725274831058
0.46197892761004655 13.260508237706945 117959.92565086532 8.01684542503561 0.21459834948042494
0.4797463600377293 13.213090759362322 99791.12016746022 8.42486012352164 0.217702699829306
0.49790420385432527 13.171963048542553 84625.95800694216 8.850085607465866 0.2208377145104408
0.5164443400174616 13.136363099245708 71925.1431228553 9.29340307490438 0.22400691213553459
0.5353653582982636 13.105803257384727 61261.836605906145 9.75569392530927 0.22721315941493897
0.5546733795916213 13.079792444012934 52293.53242644653 10.237767319530498 0.23045779892143825
0.5743586422559808 13.05782043992721 44718.962348856985 10.740090632005646 0.23373747819467428
0.5944175848817834 13.039515935695437 38319.311769541404 11.263918336102684 0.2370585063777363
0.6148565866770597 13.02447927541009 32893.38184892267 11.810183494579528 0.2404224368669359
0.6356632745811195 13.012437249381588 28284.777879172765 12.379865446914037 0.24383090321252407
0.6568355986345672 13.002999751767153 24364.269085015185 12.973645398318906 0.247281766644196
0.6783696768193846 12.995966520114088 21021.677867692128 13.592865955693371 0.2507799880928039
0.7002594669335909 12.991058223459858 18167.10679674153 14.238717760702945 0.25432812024093415
0.7224974072332297 12.987998713615317 15724.636953336409 14.912390937414088 0.25792814854299345
0.7450868523187867 12.986652473007942 13533.329052079804 15.614903789069388 0.2615798537006163
0.7680100465557006 12.986756294798829 11832.590621931058 16.347545601593286 0.26528535961023075
0.7912568165944465 12.988149529016427 10286.916383041142 17.1119220117724 0.2690492466570461
0.8148343289075134 12.990668829629326 8953.455130620916 17.90948863971191 0.27287394855094615
0.8387187725301337 12.994141401663727 7805.246938778903 18.741593232286363 0.2767603866776014
0.8629016388536896 12.998417349797139 6811.695217892872 19.609615951049282 0.28070935862674545
0.8873860856075397 13.003370399904185 5953.340457789574 20.51562634599297 0.28472707165970046
0.9121434300262755 13.00885866664568 5209.241667891398 21.461419301452263 0.28881654062722073
0.937165587720046 13.014750506535512 4563.643683097731 22.448456455247232 0.2929775036688763
0.9624520474691504 13.02096835847439 4002.996362438844 23.47880907173707 0.29721412518990636
0.9879744699769606 13.027349116831342 3515.2608436504015 24.5548786009902 0.30153232911334926
1.013720120441576 13.033810057416126 3090.697219410525 25.678580500153906 0.30593354452843313
1.039685861610132 13.040265652704703 2720.3521863496444 26.851930932387166 0.31041943470693906
1.0658396880971983 13.046595940449828 2397.296883805499 28.078001709005555 0.3149985400476673
1.0921745412661272 13.05272357275283 2104.250680979564 29.358815250894903 0.3196710785623335
1.118674491383294 13.058555020772738 1867.6481381239548 30.6971940912376 0.32444218926332086
1.1453075523068332 13.064016285697656 1651.3829839707498 32.09647076580284 0.3293194718904871
1.1720732714750883 13.069016957680994 1461.3986595007461 33.558658480310875 0.33430108950987686
1.1989310604224046 13.0734756082486 1294.8687084445753 35.0882670079067 0.3394003850186697
1.2258790508280697 13.077343584233617 1148.5621025673827 36.68727839382408 0.3446138647561181
1.2528775479068388 13.080500945188225 1019.6989065533003 38.36078624412079 0.34995621894823403
1.279921379373293 13.082939620815749 906.2928170578915 40.111077002325715 0.3554242883892374
1.3069671874104385 13.084525922898875 806.4392224264826 41.94353646080868 0.361032129643287
1.3340059549543146 13.085238048010263 718.2730370284763 43.86173912463128 0.3667821779828021
1.3610151026891877 13.085029505984723 640.3128280162306 45.87028587311094 0.37268169467475326
1.3879483728246278 13.083767002826324 571.5509911619853 47.97455627871082 0.37874088765431224
1.4147993610038168 13.081455425486812 510.5991389462254 50.17936100658673 0.3849656759154206
1.4415310095277745 13.078017267105974 456.66623498032976 52.48982157462477 0.39136251343076717
1.468127165970074 13.073413287350126 408.8310247543564 54.91240650441423 0.39794335484571103
1.4945375533270746 13.067543766465691 366.3606218117065 57.453308620406375 0.40471726614195724
1.5207499696053848 13.060392744531423 328.7046617613809 60.119159120889265 0.41169402379584197
1.546734050827284 13.05189777886866 295.15113463717387 62.91706704363427 0.41888417328545285
1.572451708461335 13.042011045640278 265.33585917610674 65.85466251054467 0.42629909237550545
1.597864959700043 13.030670716765151 238.7998145892934 68.94014413500341 0.4339510597392128
1.6229639244518683 13.017849024266095 215.13564012942933 72.18233102331554 0.44185332954486806
1.647714840297915 13.003500851785793 194.00287448198287 75.5907198557343 0.4500202127107543
1.6720633176595425 12.987560317239064 175.14433090337783 79.17516419240543 0.45846556462866667
1.6960008897881123 12.969999397752712 158.28694078284624 82.94603784650226 0.46720340759110196
1.719480750897006 12.950781030919918 143.2096950540554 86.91599911248419 0.4762549367786621
1.7424613273418563 12.929828291071024 129.71464315366472 91.09653971881549 0.4856341349794716
1.7649442016196397 12.90717368733481 117.61509981206495 95.50194045826991 0.4953636667420203
1.786870160180566 12.882734175000458 106.76870924354273 100.1456896463334 0.5054603261882439
1.8082069686554818 12.856462435372116 97.03889877851208 105.04441542303894 0.5159501972105989
1.8289198966901132 12.828328108930169 88.29042444928166 110.21466931635523 0.5268558322617855
1.8489927865259908 12.798338378354305 80.42065404523117 115.67421023008085 0.5382010485308992
1.8683662277055548 12.766391799901553 73.3470897533854 121.44303282403892 0.5500143580573157
1.8870431505005523 12.732561722870527 66.97220434135991 127.54257810108872 0.5623256109069085
1.9049644476951295 12.696733295586727 61.226460640838646 133.9954942242217 0.575164818302039
1.9221034569470337 12.658904283730374 56.045627254029405 140.82740691809562 0.588568029635268
1.9384144862244987 12.6190035668592 51.36602838442542 148.06600449906824 0.6025735081561179
1.9539079532318306 12.577145949126276 47.140266184037344 155.73968004427152 0.6172166149547741
1.9685207991849867 12.533205881666586 43.31948371561895 163.88222071880085 0.6325453904318398
1.9822314689151437 12.487193225135462 39.85879126899914 172.52756721024463 0.648601906977403
1.995016377143425 12.439100474064983 36.72754012745052 181.7147592689247 0.665438432592875
2.006849048622581 12.388927873076135 33.885692055559275 191.48596865354372 0.6831098923888936
2.0176917072495146 12.336639939231643 31.311678309930553 201.8872639517806 0.7016755648558409
2.0275249571445144 12.28224470342469 28.978173634743516 212.96846975681316 0.7211976408609739
2.0363287840105873 12.22576033898278 26.85634992162204 224.78543483966982 0.741747553926917
2.0440682047725507 12.16715410655634 24.931198325561155 237.39904136779026 0.7634014198335574
2.0507228566011637 12.106430172294678 23.17711938536792 250.87637098518363 0.7862424310324359
2.056289802626889 12.043667923080491 21.584248344181823 265.29075032362215 0.810359363859778
2.060730267274844 11.978804158746073 20.132960213515425 280.7235049818863 0.8358504203590238
2.064030095684804 11.91189460883193 18.812650026573756 297.2649152187987 0.8628242058730303
2.0661852574180424 11.842977271218684 17.61100597839969 315.01530338422293 0.8914008487536884
2.067172188127397 11.772072580713813 16.516366342051274 334.0839553157965 0.9217056041214781
