M[M_sun], R[km], Lambda[1], P_c[MeV/fm^3], rho_c[fm^-3]
0.24162668629717493 15.618656898711224 2160425.4255784233 3.5677272577965504 0.1711233750220791
0.2536413823603188 15.277378730104036 1723210.7201080164 3.7847889458613526 0.17388779088925024
0.2660363408905446 14.981345754012878 1383043.099588221 4.011337032848075 0.17666588226215552
0.2788091702081427 14.723659091526404 1116486.4136317628 4.247628563887026 0.17945635842035926
0.2919619075089599 14.498528651118296 905995.0285474404 4.494288234401594 0.1822657767144914
0.3054951043008274 14.301374293582661 738740.7516372799 4.751469030404374 0.18508979213182813
0.31940949825433107 14.128275152058212 605220.010359832 5.019857514489969 0.18793511750619307
0.3337055087249297 13.976105392216503 497782.67047881807 5.299671837941139 0.19079826050151824
0.34838388357747985 13.842165558211748 411090.7162761468 5.591647398289646 0.19368565523806394
0.3634424472004982 13.724152507527313 340722.9906596806 5.895942890457551 0.19659220633326902
0.37889493569692784 13.620151341068421 283380.4562538211 6.213425878670802 0.19952566807563946
0.39472377468192016 13.528588841060728 236466.7102444308 6.544359943099486 0.2024823287973018
0.4109453777316293 13.448025614126914 197929.99465844003 6.88943510033556 0.20546569087156127
0.4275502262398806 13.377183002819624 166132.2484299463 7.249361753027557 0.20847892664688575
0.4445428500649279 13.315034948175416 139855.58416054977 7.624407743082192 0.21151772534026986
0.4619201340481772 13.260677655652227 118022.86667167774 8.015504255803078 0.21458797445212258
0.4796807340061552 13.213271039540597 99849.08283292274 8.423364141094805 0.21769145213280128
0.4978344887421644 13.17208753837045 84679.12169548392 8.848440327868884 0.22082580198318474
0.5163707143518351 13.136479595710101 71968.78478053887 9.2915818730414 0.2239940907608805
0.5352834786752794 13.105925374974335 61303.7212203492 9.75368445344028 0.22719940150684842
0.5545861798298719 13.079903817560282 52322.60220878808 10.235557161893338 0.23044308436272146
0.5742642493874892 13.057926237633918 44751.046742262224 10.73768803023217 0.23372205274705568
0.5943176610680815 13.039582445182573 38347.009429736056 11.261287841764103 0.23704207100150662
0.6147508603129291 13.024564807123511 32919.23225002075 11.807309568603076 0.24040495860195948
0.6355481524427152 13.01248646877041 28310.010496911716 12.376731580810468 0.24381234735878266
0.6567158270479595 13.003047309969327 24384.108416847244 12.970265983255693 0.24726245129348903
0.6782426418891518 12.996003231129857 21039.839871490298 13.58919300462966 0.25075953808532364
0.7001271152301274 12.991079635560938 18182.51590861012 14.234731580693984 0.25430649501983993
0.7223565650825486 12.987998362106755 15739.381191943812 14.90807057024026 0.2579053051331707
0.7449392873551135 12.986658141506666 13642.39312725784 15.610269082438574 0.261556164154642
0.7678554225921341 12.986756293365143 11843.083287512007 16.342533793943616 0.26526037700610194
0.7910950475338063 12.988127690348023 10226.84397846313 17.106507950952246 0.2690229199126325
0.8146645496081917 12.990651963449297 8962.051776741198 17.90364550605772 0.2728462232995611
0.8385422222792578 12.994114387630665 7812.304819571176 18.735346941955058 0.27673168820544647
0.8627171639145662 12.99838277193159 6819.316399269034 19.60288529006618 0.28067916239572005
0.8871876853011774 13.003328373634078 5959.857582675038 20.50837892130408 0.2846953123209828
0.9119429656582386 13.008817833798044 5214.914155805585 21.45362050186534 0.2887831484258204
0.9369575024274444 13.014702202291305 4568.45141278243 22.440138766918682 0.2929429567269331
0.9622301071583853 13.020901189688885 4007.578071871679 23.469868117897995 0.2971778133197497
0.9877524718416341 13.027299985036375 3519.345709186469 24.545272299443766 0.3014941678376307
1.0134888665826296 13.033758210329387 3094.169792396925 25.66834603451278 0.3058940477544772
1.0394476342565624 13.040209226890923 2723.582339862804 26.84094318986486 0.3103779249942476
1.0655961462759436 13.046544747016949 2400.0573723921298 28.066209259030156 0.31495491464745806
1.0919195740097718 13.052662160084326 2117.3532295574055 29.346259886577446 0.3196258869598237
1.1184133650199803 13.058501619267293 1870.0910203569329 30.68372592164933 0.32439467942238265
1.1450389855630874 13.06396265582911 1653.3381018087225 32.08213374660446 0.3292702113046611
1.1717970604935735 13.068975381405071 1463.298182369406 33.54328444881899 0.33424927743862026
1.1986476675368312 13.073437948270891 1296.4932022258265 35.071783406389336 0.3393458782171662
1.2255907713323706 13.077308323440658 1149.9626253664562 36.66973305439762 0.3445572662070885
1.252580176825163 13.080472138258846 1021.0323260238594 38.34203054113694 0.3498969486180938
1.2796193081571194 13.08291930291647 907.5287506156083 40.09105350233129 0.3553623423696738
1.3066581999229374 13.084514889007627 807.4867828708827 41.92221563085141 0.36096767354423465
1.3336905755455908 13.085235220838632 719.1873725593235 43.83888193755004 0.36671423460193
1.360696158161737 13.085039243634737 641.2031778084697 45.84594021988686 0.37261090082228465
1.3876229509151747 13.083787960651534 572.3082720125211 47.94861817834927 0.3786670594476823
1.4144751178663149 13.081510035627016 511.25115793354564 50.151546058202726 0.38488773536477794
1.441204359027123 13.078085907720675 457.27565064637713 52.460173931213816 0.39128111210997274
1.4677890037334913 13.073479730336095 409.3965322832887 54.88079489805996 0.3978582620866288
1.4941944672666956 13.06762484717483 366.87243601579127 57.4195911507393 0.40462823344534377
1.5204058303108794 13.06049154201873 329.1457620033733 60.08318230317619 0.4116007833671039
1.5463873905730976 13.052019973411896 295.57664829406957 62.87866476188736 0.4187864364252902
1.5721018458371139 13.042155143741981 265.71543889768736 65.81365486507696 0.4261965477098822
1.5975252534409337 13.030843199299978 239.1520922686187 68.89633617256398 0.43384337127124645
1.6226123747740198 13.018044441847907 215.44763698706547 72.13551133648575 0.44174013450917277
1.6473630373440538 13.003719133947527 194.2862657777242 75.54065903660889 0.449901119208412
1.671713300508865 12.987803323330038 175.40239280936552 79.1218745010171 0.4583412403883314
1.6956512827592265 12.970276634321007 158.51986223765536 82.88899939998616 0.4670723334071309
1.7191183218475545 12.951064083594858 143.4367150113465 86.85491831602384 0.47611661882700307
1.742120394757477 12.93016870215981 129.91248057454078 91.03139114708587 0.48548920338770046
1.7646056282942364 12.907547863486053 117.79166172622853 95.43209656516822 0.4952104136451717
1.7865311087033373 12.883128104688915 106.92610642434238 100.07108961844493 0.5052993425644912
1.8078722962636846 12.856893868328044 97.18258348936548 104.96467245230366 0.5157808628450947
1.8285866102726347 12.828784510517762 88.41828891796641 110.12923845923636 0.5266770183670993
1.8486707179044493 12.798845846066175 80.54506085227669 115.58252846990023 0.5380116656513092
1.8680616836738002 12.766965438424858 73.45413529131798 121.34481033088542 0.5498144130557833
1.886736960062036 12.733145829388382 67.07393649956691 127.43737110369278 0.562114629797043
1.904667629013969 12.697356177430446 61.31959463054084 133.8828711517263 0.5749424653877796
1.9218156377032247 12.659573075532887 56.13258858316416 140.70644168788306 0.5883323433660618
1.938144178349465 12.619742602261622 51.443738884570564 147.9359727821666 0.6023233856791762
1.9536357209811022 12.577893866657497 47.20940408786146 155.60021452639077 0.616952313837695
1.9682673257604208 12.534009771335414 43.382062959616796 163.73234308833807 0.6322652156773506
1.9819941821202172 12.48804718366525 39.918482842696044 172.3661653054088 0.648303896007443
1.9947931625000503 12.440002660287188 36.78237997056972 181.54111480826182 0.6651221368000608
2.0066336843130825 12.389863531704924 33.93968536997912 191.2989541268958 0.6827736941314367
2.0174978240641277 12.337642476306671 31.357905401654072 201.68563559117757 0.7013176944047683
2.0273478361977237 12.283296413579281 29.020180477061672 212.75136244289519 0.7208178246043924
2.0361695504137027 12.226866157559199 26.89619708224479 224.55083927984157 0.7413420499168257
2.0439281792634865 12.16831253556754 24.966352532651552 237.14581477522384 0.7629696452314405
2.050601526159475 12.107644894493813 23.209277978027078 250.60239956513857 0.785780993628762
2.0561833798229805 12.044916089624305 21.614115757130445 264.9940472600567 0.809865691641534
2.0606524703447575 11.980129297860097 20.16016999881586 280.4025164011028 0.8353238144860687
2.0639805213309814 11.91328696734752 18.83870960162566 296.9167412825992 0.8622601017101931
2.0661520618441043 11.844413797628425 17.634845468110782 314.6370809434488 0.8907953890166377
2.067162788968232 11.773563161363006 16.538245299422748 333.67319006885197 0.9210568332256256
