M[M_sun], R[km], Lambda[1], P_c[MeV/fm^3], rho_c[fm^-3]
0.24162668629717493 15.618656898711224 2160425.4255784233 3.5677272577965504 0.1711233750220791
0.2536442326533371 15.277265717612936 1723246.2848109747 3.784823239824636 0.1738882183469586
0.26604069744096376 14.981242623302977 1382937.53199558 4.0114091253179245 0.1766667534571076
0.2788155397238688 14.72350323005026 1116473.1731233005 4.247740893570156 0.17945766127540633
0.29197039326059915 14.498397381398563 905875.6603753439 4.494443748610301 0.18226750840129832
0.30550524146861235 14.30124463367479 738686.8344229363 4.751673009211067 0.1850919954922398
0.3194218661556123 14.128132735760678 605087.0183925569 5.020111460129504 0.18793775229021725
0.3337204829691329 13.97592984495904 497670.6592174829 5.2999824356775 0.19080138770534855
0.34840186948661017 13.842020319154068 411002.37091288506 5.592015423273732 0.19368921598102515
0.3634651892418299 13.723964482415557 340644.2348877539 5.8963766103611395 0.19659627992238843
0.3789186402030229 13.619999725176935 283296.2462088075 6.213930541609777 0.19953026999398918
0.39475072258129157 13.528437677067643 233298.783879754 6.544935024771493 0.202487371486668
0.4109761741573582 13.447880595835604 197865.1837688664 6.890091701948801 0.2054712827664318
0.4275844117513883 13.377043917257067 166078.92188286927 7.250106035419651 0.20848508390437231
0.4445791466850723 13.31492279321554 139790.7186201296 7.625237648827732 0.21152433192363201
0.4619609728914133 13.260563342178664 117982.03062941071 8.01643425948481 0.21459516878247645
0.4797258730501753 13.213146772128265 99810.09761986273 8.424401493970496 0.21769925157623377
0.4978830208281576 13.17198099095562 84643.77567130906 8.849581204807372 0.22083406241967862
0.5164216956354576 13.136403446031537 71935.98196670933 9.292844735713794 0.22400298139282449
0.5353408198009508 13.105837038079539 61275.168952926906 9.755077863450285 0.2272089415293518
0.5546452518177374 13.079817794704864 52298.290502290656 10.237090201042005 0.23045329380541107
0.5743292233766204 13.057840502483272 44729.206915223695 10.739354037343812 0.23373274902877683
0.5943875711248562 13.039515299353189 38328.38098449238 11.263111869323554 0.23705346755870624
0.6148242246771842 13.024499476192037 32900.58159549927 11.809302390884207 0.24041707828637932
0.6356287439328361 13.012431631500826 28290.779908950874 12.37890464421525 0.24382521422845013
0.6567989121596947 13.003019876661691 24369.899456879106 12.972609308812885 0.24727584478144807
0.6783306639193906 12.995976219963833 21026.646913481334 13.591739865430078 0.2507737183239155
0.7002192882242502 12.991055913310204 18171.875220224534 14.237495631021217 0.2543214901277647
0.7224539556305073 12.988005450856033 15729.519192350688 14.911066341625956 0.25792114490575146
0.7450408111093474 12.986643035499297 13633.643167522283 15.613482812598471 0.2615725906114679
0.767962481966652 12.986747682371439 11836.027941542596 16.34600899971538 0.26527770003526246
0.7912067662256828 12.988133274242575 10288.43906137447 17.110262071622223 0.2690411749301987
0.8147817676389274 12.990661670493864 8956.012380720476 17.907697137029967 0.2728654479988189
0.8386635072699726 12.994133546967094 7807.293980776471 18.739678113468262 0.27675158769754127
0.8628456175114841 12.998397958993273 6814.368575722889 19.607552312518678 0.28070010038212734
0.8873253776536904 13.003356638826585 5955.133105844572 20.513404254224916 0.2847173341090321
0.9120821017096844 13.008842984601964 5211.034782604587 21.459028142643476 0.28880630237765
0.937103162277619 13.014732381708338 4565.037310140014 22.445906190690465 0.29296691132180797
0.9623858881621824 13.020945327940854 4004.348180487602 23.47606769419419 0.2972029916411621
0.9879068577698787 13.027330105539507 3516.526661950634 24.55193320536405 0.3015206284547715
1.0136492102156947 13.033787028155185 3091.7732013910772 25.67544248846324 0.3059214343369719
1.0396134120034295 13.04024230021422 2721.590323290593 26.84856193776579 0.31040670725191283
1.0657623329342476 13.04658346237175 2398.168183439939 28.074385959226944 0.31498516381698777
1.0920958414212112 13.052704326486761 2115.753412077356 29.35496556181055 0.319657222045351
1.118593303990863 13.058542485507578 1868.4943225123766 30.69306449644176 0.3244276218500875
1.1452252428080965 13.063993427302412 1652.0609668211941 32.09207474455056 0.32930436759445497
1.1719883671451368 13.069005302282363 1462.001253984989 33.55394446202917 0.3342852027822319
1.1988442853098218 13.073465837784655 1295.443693951266 35.08321274050743 0.3393836719265953
1.2257895636746634 13.077331208831572 1148.9895175898394 36.681898545722014 0.34459651019892346
1.2527861144092116 13.080494051249259 1020.1392233647907 38.35505898003481 0.3499381843426803
1.2798281897275001 13.082936460257404 906.6782150813997 40.10493721819755 0.3554052939483142
1.3068728096245736 13.084522847198368 806.7395694283854 41.9369988442224 0.36101236543790216
1.3339108045976653 13.085236503205936 718.5694750482822 43.85473036917164 0.36676134433691465
1.3609181121931564 13.085031314816705 640.6119814540947 45.86282066595836 0.37265998686642526
1.3878486026559909 13.083772876578061 571.7692243275874 47.96660272994834 0.3787182492870728
1.4147054655458775 13.081483116716878 510.79616428391046 50.170831891936 0.3849417763962414
1.44142935380262 13.078031162147912 456.8628980909513 52.480730435307834 0.3913375525683584
1.4680235915425737 13.073433342862248 409.0106592735719 54.9027130808439 0.3979172618927839
1.4944325978228514 13.067569628880667 366.51749660544624 57.44296939166871 0.40468996488167563
1.520644695416282 13.060421693299533 328.82623216800596 60.10812701272276 0.4116654320926087
1.5466281029902886 13.051934562525638 295.28116584219714 62.90529110726861 0.4188542025911738
1.5723454128604797 13.042054644780617 265.46421582607513 65.84208756915368 0.42626764718655435
1.5977684082052102 13.030726773027123 238.91357437229888 68.92671039413109 0.4339180369987556
1.6226020397530974 13.017927297711081 215.43320256913802 72.20278086894494 0.5556176310173625
1.6387384981729136 12.999655499537171 200.04357040689703 76.09080418265317 0.8734657020565578
1.646593240558644 12.970795624146895 190.13393024560298 80.71161493611939 1.1730258726768337
1.6483977021041858 12.931436990153108 183.3966260549494 86.06958008782915 1.4550703299906176
