M[M_sun], R[km], Lambda[1], P_c[MeV/fm^3], rho_c[fm^-3]
0.24162668629717493 15.618656898711224 2160425.4255784233 3.5677272577965504 0.1711233750220791
0.25364431812106497 15.27729977139491 1723108.4880763863 3.784851469686114 0.1738885702185634
0.26604292972989163 14.981219345948254 1382921.7962007695 4.01146847058146 0.17666747060959426
0.27881980523018274 14.72344424257917 1116311.7477376785 4.247833362452513 0.17945873377509405
0.2919778286865049 14.498271131030366 905761.3114270358 4.494571768055523 0.18226893392753263
0.30551446895925655 14.301097534246006 738546.7077594387 4.751840926638103 0.18509380932092703
0.3194330077138873 14.128012194627573 605001.8954680638 5.020320512972451 0.18793992129414983
0.33373400479428195 13.97581939490162 497585.49774896563 5.300238128384196 0.19080396210663406
0.34841705438930515 13.841892106069798 410922.6998424458 5.592318394770832 0.19369214731360418
0.36348301990531884 13.723829541909305 340596.6774509202 5.896733668100523 0.1965996334842382
0.3789375501426655 13.619885385978781 283228.23500959703 6.214346007242527 0.19953405854030667
0.3947735263825863 13.528325746686237 236344.70673794064 6.54540846746065 0.20249152293946218
0.4110010876250036 13.447768070066237 197808.77199268574 6.890632262485327 0.20547588640679829
0.4276109906902313 13.376977043848912 166030.99971031817 7.250718787243991 0.20849015304318022
0.44461084171651866 13.314809687292158 139760.8274180114 7.625920898839297 0.21152977103305237
0.4619925316615371 13.2604639156555 117937.83904439403 8.01719992651613 0.21460109183597892
0.4797626386484715 13.213075540032888 99776.26715394596 8.425255549635105 0.2177056728808837
0.49792346429328804 13.171892892622814 84609.72096486353 8.850520500466134 0.2208408633215782
0.5164649752953374 13.136317603227832 71912.60849345138 9.293884473829312 0.22401030121397783
0.5353868232249857 13.105771838711362 61250.66597958127 9.756225094983394 0.22721679608369252
0.5546975365381973 13.079738677507228 52283.91773155287 10.23834603959667 0.23046161774270116
0.5743829710369289 13.057790708680644 44709.963151423435 10.740725730561666 0.23374155572413285
0.5944431164593276 13.03947945289339 37977.52179164194 11.26461368210831 0.23706285091216264
0.6148847426486793 13.02446025996389 32886.728877331865 11.810943196853485 0.24042705712429682
0.6356927246400453 13.01240057804166 28277.567436010762 12.38069387065843 0.24383580837098612
0.656866788050577 13.002989952209788 24358.873143277197 12.974538739211912 0.24728687261440874
0.6784024492113414 12.995958684033429 21016.923782172562 13.593836901642897 0.25078539405971884
0.7002950752935965 12.991053704846813 18027.263711917993 14.23977151911869 0.25433383693176825
0.7225344055808065 12.987986019599996 15720.442795544746 14.913533050348223 0.25793418732459894
0.7451257703690675 12.986651366058815 13626.654435888004 15.616129009279817 0.26158611621361133
0.7680508610393434 12.986762009619694 11829.182214731763 16.348870524293716 0.2652919640175903
0.791300508512008 12.988139852093495 10283.886765006746 17.113353288247676 0.2690562064698745
0.8148773157238004 12.990685182894486 8950.85944827836 17.91103336229267 0.2728812781491389
0.8387661902058131 12.99415199191463 7803.090355734249 18.743244548833058 0.2767679736227193
0.8629504034235544 12.998419456128792 6810.005097135094 19.611395337076555 0.2807173416096498
0.887436149970788 13.003375614258562 5951.532681962326 20.517542367976077 0.28473546796511434
0.9121963278006726 13.008876846390026 5207.904565664113 21.463481112576453 0.28882536870538084
0.9372213406423414 13.014773360782101 4562.656688792903 22.450655465646946 0.2929866371061501
0.9625091010806046 13.020976316265326 4001.854557952477 23.481172883446764 0.29722372533161634
0.9880337202623019 13.027364841224562 3514.2448285080914 24.557418343350072 0.30154241830407275
1.0137804337388112 13.033821261532008 3090.080841684583 25.681286340686846 0.3059439868881652
1.0397491758778714 13.040282196539255 2719.516175600298 26.85483595811505 0.31043040937103233
1.0659043866029614 13.046614243419535 2396.623896023199 28.081119522104444 0.31501007419404914
1.0922407940981582 13.052735956618205 2114.2471815409526 29.362134799411248 0.3196830268987792
1.1187436910740465 13.058576639098458 1867.0440414139614 30.70075501671923 0.32445475065869955
1.1453783989809685 13.064026978358351 1650.8493741956124 32.10026144401646 0.32933249628746236
1.1721457850814154 13.069033855943553 1461.078924675582 33.56272338645398 0.3343147886626885
1.199005389323653 13.07348786725304 1294.4114994035972 35.0926253330341 0.3394147968183214
1.225956112096345 13.07735426703667 1148.1752540512225 36.691917487895665 0.3446288297554767
1.2529554694497758 13.080509733586336 1019.41469042109 38.36572493854183 0.34997177042351035
1.2800018706336904 13.082947429834839 906.012106396133 40.116371445334885 0.35544066762714865
1.3070552972346174 13.0845546520606 806.119253164228 41.94917398553077 0.3610491727346032
1.3340896549213266 13.085234791900675 717.9956318366361 43.867782954249094 0.3668001433700648
1.3611000523577856 13.085030795967832 640.0988768381387 45.876723340894685 0.37270041395660447
1.388041706706213 13.083777780585041 571.3293779037749 47.98141488839255 0.3787604094714738
1.4148869223604048 13.081449259281381 510.3941597698946 50.18671598649335 0.38498628537965446
1.4416193935164852 13.07800262942923 456.48213883670405 52.49766124605309 0.3913840382312383
1.4682159241040393 13.073399210025881 408.66830018777875 54.92076559033443 0.3979658560016594
1.4946276743124691 13.067521840281632 366.21267200978815 57.46222465687594 0.404740809390541
1.5208409517967247 13.060364704564957 328.5722439283375 60.12867270896447 0.41171867997966693
1.5468257236933036 13.051865171623243 295.0428760693078 62.92722212642311 0.4189100187785153
1.5725435511483665 13.041971599640824 265.2326860726995 65.86550667820029 0.42632620955166917
1.5979571138881588 13.03062530831617 238.69012683227504 68.95172896079993 0.43397953748782775
1.6230672366227223 13.01780725905964 215.0404936167709 72.19471243433419 0.44188326383869
1.6478077973407101 13.003441882331863 193.91208561030882 75.6039585421219 0.4500517072319358
1.6721565087100152 12.98749601434699 175.08558128612293 79.18925690764097 0.4584984427720801
1.6899927684733285 12.969883755473377 161.7926515552328 83.42738192493167 1.173295786577444
