M[M_sun], R[km], Lambda[1], P_c[MeV/fm^3], rho_c[fm^-3]
0.24162668629717493 15.618656898711224 2160425.4255784233 3.5677272577965504 0.1711233750220791
0.25364359836253586 15.277280461486605 1723126.578549503 3.7848122280187155 0.17388808109011009
0.2660390794244025 14.981281364687096 1383083.0266316088 4.011385976294747 0.1766664737148241
0.27881384126329367 14.723565543249244 1116475.119340882 4.247704824152586 0.17945724292451798
0.29196702911714545 14.49845945651495 905934.472642536 4.494393812299441 0.18226695234888726
0.3055033107765822 14.301228866387435 738681.6019723621 4.751607510427291 0.18509128798036872
0.3194182069502188 14.12817982880205 605129.4844900438 5.020029916383284 0.18793690624237722
0.33371468471726734 13.975997082717871 497697.093937567 5.299882700136105 0.1908003835339379
0.34839594395036527 13.842069345054169 411031.42513193504 5.59189724691339 0.19368807259222964
0.36345751157364187 13.724040372010691 340679.1978790757 5.896237338177937 0.19659497184857067
0.37891041599864145 13.620043502003572 283326.82138042024 6.213768488207256 0.19952879226208317
0.39474167970051 13.528527775624932 236416.7398342293 6.544750358393739 0.20248575221200718
0.41096558737848493 13.447915265639262 197886.02109038105 6.889880857618975 0.20546948712764163
0.42757334225947136 13.37708844006857 166099.09477777165 7.249867034598872 0.20848310671183268
0.4445677089172266 13.31496578236364 139821.2938315916 7.624971152081205 0.21152221043817282
0.46194876883435565 13.26058714374374 117990.96711725704 8.01613561847362 0.214592858552814
0.47971126789196666 13.213183782808564 99825.89622765609 8.424068379938811 0.21769674702440037
0.49786731559486574 13.172026037137128 84653.7587642779 8.849214845991137 0.220831409825316
0.5164046182838121 13.136432698108495 71946.85004627844 9.292439203290819 0.2240001264192847
0.5353222752752325 13.10586479842389 61284.29207368408 9.754630407809588 0.22720587801118353
0.5546282704213479 13.079840239870652 52306.32403496115 10.23659790549493 0.23045001530911266
0.5743089562895548 13.057877725997699 44735.84042072946 10.738819040909585 0.23372931418594795
0.594362677495331 13.03955785120272 38332.03312687138 11.262526126442738 0.2370498078265871
0.6148004259354616 13.024536175412436 32906.6266315091 11.80866244127548 0.2404131863250259
0.6356012427038362 13.012437960587949 28298.341268954355 12.378206811719467 0.24382108231046137
0.6567717312195602 13.00302781951607 24374.339016627902 12.97185679798676 0.24727154373814753
0.6783023497781537 12.995990028455537 21031.365496360206 13.59092199047661 0.2507691646152964
0.7001896783456394 12.991066797558064 18175.31284567812 14.236608006638843 0.2543166747221698
0.7224218766271862 12.988007470088263 15732.327867812062 14.910104300749706 0.2579160582329947
0.7450083630918354 12.986649384246086 13636.245846340104 15.612450774873768 0.26156731551919693
0.7679278789415386 12.9867596379846 11838.012962876934 16.34489298924533 0.26527213700297436
0.791171383819486 12.988131589268603 10290.882356042295 17.109056487395566 0.26903531258234953
0.8147438625800038 12.99066035226733 8957.954958281578 17.90639600669587 0.2728592742284189
0.8386250412354523 12.99411613686663 7809.128779197474 18.738287208041594 0.27674519720677954
0.8628039164158745 12.998401156400627 6816.067070781648 19.60605354694637 0.2806933763662264
0.8872781501201674 13.00333481729235 5956.559392979281 20.511790415011316 0.28471026201536836
0.9120371720403219 13.008833989156921 5212.3012872263935 21.457291522330863 0.28879886667237403
0.9370551077847925 13.014730528270224 4566.27092163648 22.444054023372775 0.2929592184732344
0.9623322944375943 13.020930651234746 4005.3701092432048 23.474076736664884 0.2971949057710645
0.9878567783672603 13.027325910509548 3517.314339837923 24.54979408642799 0.30151213075072597
1.0135973013370596 13.033781953763071 3092.5520736796507 25.673163488312642 0.3059126392364801
1.0395591923086436 13.040241213986041 2722.115346801753 26.846115195425035 0.3103974638999332
1.0657094854517355 13.04656234945974 2398.87834611607 28.071760021676223 0.31497544933214244
1.092038807092019 13.052691744666424 2116.2579070203415 29.352169735767266 0.3196471587882411
1.1185363458534856 13.05852390125977 1869.0296306376185 30.690065402970756 0.32441704235353214
1.145165697552669 13.06398145884054 1652.5160387571584 32.088882171981865 0.32929339822956466
1.1719280414067494 13.068994310568883 1462.491991594483 33.550520962378876 0.33427366523543284
1.1987813998621397 13.073460664229309 1295.7092962871836 35.079542155835135 0.3393715342981818
1.2257266140783998 13.077326580053215 1149.3550880148975 36.67799152766449 0.34458390676346323
1.2527207934890665 13.08048752643427 1020.4152165271266 38.35088373832153 0.3499249936059608
1.2797594876302771 13.08293363406662 906.838649894537 40.10047834842079 0.3553914996948371
1.3068028256347826 13.084517687160027 806.9526964265841 41.932251076854556 0.36099801221786554
1.3338397895248613 13.085240181731503 718.7844096106808 43.849640474837955 0.3667462145386554
1.3608466042378706 13.085035007227129 640.8013020467964 45.85739930952659 0.3726442222983573
1.387776750314338 13.083777043656854 571.9680022534997 47.96082675565053 0.3787018089996962
1.4146320187617543 13.081493607003152 510.9604653868126 50.1646379656395 0.38492442033217383
1.4413548143600352 13.078042890776702 457.01085453439754 52.47412838953609 0.391319425824242
1.4679487803042515 13.073446332955056 409.1301753735751 54.895673683061524 0.3978983130999618
1.4943569348119112 13.067585671679833 366.62810359509217 57.43546104149534 0.40467013870048074
1.520568100619339 13.060446246317495 328.92135538965607 60.10011552993628 0.411644668886263
1.5465505205424257 13.051963756703913 295.36962721342826 62.89673949865549 0.41883243806737036
1.5722664811601588 13.042088478613586 265.53532922064505 65.83295577185012 0.42624481200325254
1.5976902224070053 13.030764019825707 238.99008980629642 68.91695499281384 0.4338940563303165
1.622776761232351 13.017950423204953 215.29589637659646 72.15754755614712 0.44179341104389686
1.6475288373004313 13.00361526502688 194.1545595627937 75.56422061162117 0.4499571716369966
1.6718786504464307 12.987687109360465 175.28240675390273 79.14695566431425 0.45839975445535647
1.6958152688358648 12.970145904065452 158.41159065893328 82.91584479670986 0.46713402405061544
1.719280303878822 12.950908347395123 143.32258332096293 86.88366610434362 0.47618171842336643
1.7422824210713843 12.930008363637098 129.81669504503603 91.06205329436119 0.48555741537905733
1.7647630054657373 12.907366448244293 117.71381481715471 95.4649683730987 0.49528254173168923
1.786690590715884 12.882939283419969 106.8516555701365 100.10619970704677 0.5053751086124859
1.8080297993858774 12.856691689312417 97.11453017842663 105.00220284049777 0.5158605587030917
1.8287418834057503 12.828564635621353 88.35559062192792 110.1695107143607 0.5267614176375535
1.8488224969257634 12.798608566458784 80.48812200468458 115.62567724111115 0.5381007961231348
1.868209677983406 12.766708806749412 73.40033505929173 121.39103714085809 0.5499085139006517
1.8868825173328552 12.732868987975559 67.02894942330154 127.48693541843157 0.5622141049812431
1.904806759280255 12.697063442642564 61.27492395330798 133.9358747540602 0.5750471109562592
1.9219512518823465 12.659258748945746 56.09157578977699 140.7633709813565 0.5884432632788642
1.9382668307976936 12.619379537823159 51.406306029102716 147.9971685892638 0.6024410988588089
1.9537671517110726 12.577548754122068 47.17657913641402 155.6658496895431 0.6170766990420411
1.9683863072930103 12.533630707705537 43.350850224836464 163.80294847765637 0.6323973092265837
1.9821053870727543 12.487643855656408 39.89184189542617 172.44212312151572 0.6484441438098286
1.9948992619200587 12.43957812962147 36.75680137525055 181.62283357119597 0.6652709886598402
2.006730792787617 12.389414819908708 33.91456685425852 191.38696434857732 0.6829319111624775
2.0175921079702595 12.33716921562224 31.338460422803635 201.78052247801944 0.701486109269093
2.0274301782624393 12.282797777349382 29.00070839681625 212.85353305502164 0.7209965659776341
2.0362451424799173 12.226344366148187 26.878024475735224 224.6612389788367 0.7415328784247829
2.043994538254869 12.167764647107685 24.94968332850433 237.26498125443888 0.7631728350253214
2.0506585981367285 12.107073311710067 23.194663504057488 250.73145212157374 0.7859985470680135
2.056236244167525 12.044342393912265 21.599345640800244 265.133688482441 0.8100980627485656
2.06068940775242 11.979506498797356 20.147664706069317 280.55360320985585 0.8355717419086027
2.064001335601902 11.91262459458708 18.827369315091982 297.0805837204451 0.862525555816974
2.066167394981174 11.843738407337849 17.62336125829037 314.815061844072 0.8910803014323865
2.067166119664396 11.772860736530962 16.527551347973432 333.8664829331462 0.9213621238646532
