M[M_sun], R[km], Lambda[1], P_c[MeV/fm^3], rho_c[fm^-3]
0.24162668629717493 15.618656898711224 2160425.4255784233 3.5677272577965504 0.1711233750220791
0.25364421233372114 15.277289100395354 1723224.0889670767 3.7848236923210297 0.17388822398710788
0.26604027632779426 14.981239421076161 1382985.9257984157 4.0114100765580805 0.1766667649522835
0.27881568883693836 14.723493299926984 1116399.2637790276 4.247742375738529 0.17945767846632588
0.29197042525026956 14.498379029699857 905822.9611687325 4.494445800602703 0.18226753125070996
0.3055054048789124 14.301226298218717 738654.1749594427 4.751675700705077 0.1850920245655119
0.3194220083608783 14.128138108346324 605104.1885318636 5.020114810954007 0.18793778705631475
0.33372186282054406 13.975930776528141 497675.00599076506 5.299986534053872 0.1908014289691982
0.34840211274396676 13.842018266833165 411001.09180997784 5.592020279437346 0.193689262965744
0.36346553748822885 13.723957123248953 340623.2137869134 5.896382333416312 0.19659633367453375
0.3789185906340909 13.619997569321438 283294.7580323153 6.213937200817249 0.1995303307179431
0.3947509097618349 13.528449362956936 236401.84649753233 6.544942613219999 0.20248743802710992
0.41097618012329823 13.447863975734041 197861.23966819342 6.890100366137721 0.20547135655430043
0.4275850823715766 13.377046827103397 166083.02701209247 7.250115856656846 0.20848516515295065
0.4445798534817474 13.314949709502285 139801.33971216646 7.625248599970826 0.2115244191017726
0.46196141067474894 13.260561813247135 117979.18317055123 8.016446531554061 0.21459526371685364
0.4797270659918547 13.21313740951344 99809.08817501304 8.424415182666541 0.21769935449609157
0.4978836613520886 13.171978866020126 84642.28988793923 8.849596259659926 0.22083417142324355
0.5164223774385438 13.13639503695898 71937.12207574635 9.292861400365268 0.22400309871300977
0.5353411849364055 13.105836723103453 61273.957274512555 9.755096250897124 0.2272090674195459
0.5546480944251155 13.07979922688638 52297.79000230138 10.237110431147105 0.23045342853001924
0.5743301009775365 13.057845552734408 44729.068204643685 10.739376022208429 0.23373289017841775
0.5943881402234744 13.03951873993364 38327.06336656797 11.2631359395795 0.23705361795010096
0.6148248718636868 13.024500286425448 32900.57044074719 11.809328688734439 0.24041723822118571
0.6356298482525343 13.012428363896314 28291.355932414826 12.378933320734713 0.24382538402424977
0.6568000169392346 13.003012589957528 24369.87879324642 12.972640232313967 0.24727602152749947
0.678332065916879 12.99597552022454 21027.230582730703 13.59177347504915 0.25077390545326994
0.7002190596434682 12.99106984987791 18171.39654847162 14.237532106977104 0.2543216880116056
0.7224550937609738 12.988002800804999 15729.389438544815 14.91110587571733 0.257921353937395
0.7450421788538207 12.98665472265419 13633.547614128609 15.613525223202025 0.26157280738634126
0.7679639171116004 12.98675154788407 11836.309307232521 16.346054861180775 0.265277928643165
0.7912086975714431 12.988140950069697 10288.559752646102 17.11031161413113 0.269041415838643
0.8147836364051103 12.990668418194296 8955.950703846396 17.907750606025374 0.2728657017053789
0.8386663987570631 12.994122622444372 7807.317068200543 18.739735271789353 0.2767518503104522
0.862847506039785 12.998407356924087 6814.478597281516 19.607613903391396 0.2807003767015299
0.8873273916504063 13.003354263695913 5955.077346791625 20.51347057410083 0.2847176247330114
0.9120856016499529 13.008838296128603 5211.173400201917 21.459099508275056 0.2888066079446179
0.9371050705796349 13.014740452675989 4565.014118603527 22.445982304787492 0.2929672274564342
0.9623879231616063 13.020950567951086 4004.296672860944 23.47614951197268 0.29720332392747095
0.9879088841522833 13.027338500675407 3516.4481468825766 24.552021111953366 0.3015209776659197
1.013651361631244 13.03379195387334 3091.8284653496844 25.67553614357958 0.3059217957701028
1.0396155034479722 13.04025189192241 2721.3506636395755 26.84866248640884 0.3104070871065805
1.0657657045397064 13.046577614220213 2398.1693378009427 28.074493872086194 0.3149855630335782
1.0920982340304863 13.052706528069882 2115.679822827812 29.355080456412352 0.31965763559537186
1.118595481485921 13.058541770452262 1868.426198431704 30.693187744567734 0.3244280566158381
1.1452277018217385 13.063993919025517 1652.0425821565893 32.09220594393198 0.3293048183826069
1.171991601313454 13.069004075175215 1462.005059861784 33.554085151682585 0.33428567692086963
1.1988467371497635 13.07347061708996 1295.410289442217 35.08336358449064 0.33938417072675386
1.2257929455027143 13.077330436666001 1148.9986803333438 36.682059106282836 0.3445970281424384
1.2527884547653088 13.08049902493822 1020.1283289527785 38.35522990879564 0.34993872258096187
1.279831143210184 13.082940031753777 906.6604704434404 40.105120458025496 0.3554058608311254
1.3068761804847138 13.084525830282482 806.6964723122164 41.93719395679856 0.36101295529277927
1.3339123552643355 13.085233791785754 718.5549037709703 43.854939542125614 0.36676196610711015
1.3609206285413773 13.085035946638708 640.5898514736206 45.8630434609869 0.3726606347241039
1.387851553455341 13.083773378292376 571.7797329439414 47.9668400987144 0.37871892491520537
1.4147087149706163 13.081486379697203 510.78892022096636 50.17108643737944 0.3849424896606254
1.441432252919402 13.078030654274306 456.8534823322797 52.48100175332894 0.3913382975059903
1.4680263963459386 13.073431598357988 408.99382749885825 54.90300237286105 0.397918040614866
1.4944356540908719 13.06756707383936 366.506171532904 57.44327795641907 0.4046907796626208
1.5206474703619863 13.060420358702737 328.8136690977196 60.10845625497611 0.41166628538344463
1.5466313528478606 13.051934162475822 295.2821712691323 62.90564254741013 0.4188550970342747
1.5723483750953835 13.042052085118325 265.4536508973606 65.84246285373351 0.42626858563184455
1.5977716206216752 13.030726003761522 238.90721828884713 68.92711130748796 0.43391902252154146
1.6228587561504606 13.01790452782897 215.2221692471022 72.16840211827135 0.4418196539051867
1.647610983672455 13.003564118009052 194.08791805317324 75.57582660938674 0.4499847820306383
1.6719596974479523 12.987630772010723 175.2289164659998 79.15931025485938 0.45842857757375255
1.6958961694152779 12.9700802323235 158.35109164198093 82.92906851544774 0.4671644121177614
1.7193770299898206 12.950870625686532 143.26721767469837 86.89782702170304 0.4762137859338816
1.742358649117888 12.929925521902497 129.77572164912092 91.07715730478368 0.485591016242661
1.76484250142328 12.907283779482968 117.67487908178393 95.48116097501833 0.4953180719159332
1.786768920830505 12.882847319244608 106.81613972485773 100.12349499970135 0.5054124311036994
1.808107649435318 12.856591131936156 97.08091103136375 105.02069050644006 0.5158998173004717
1.828817478892345 12.828457321182096 88.32350241764095 110.18928857542215 0.5268027678839685
1.8488968808857025 12.798491326268822 80.46037680486683 115.64693288687327 0.5381447029525198
1.8682742316710281 12.766552780357921 73.38455695157766 121.41380924380287 0.5499548695572025
1.8869529213192666 12.732733960321275 67.00440631542631 127.51135182635298 0.5622631085171195
1.9048766598071933 12.696918413605419 61.25524600920186 133.96198561411282 0.5750986619013531
1.922018073352081 12.659101687099737 56.07086096629865 140.79141597014635 0.588497905581997
1.938331998236173 12.61921445749435 51.390210499061055 148.02731564815076 0.6024990882264877
1.9538282547324455 12.57737268587571 47.16009612653186 155.69818398193576 0.6171379757628335
1.9684454427563771 12.533445924327829 43.338360085484645 163.8376659418824 0.6324621617382802
1.9821601670676967 12.48744480944156 39.877274943581924 172.4795434078741 0.6485132362771399
1.9949507135228703 12.439369657238856 36.744176378878684 181.663092327443 0.6653443205425634
2.0067867711164014 12.38921121861372 33.90221745211675 191.4303230002778 0.6830098575306482
2.0176345645944083 12.33693752203351 31.323808559282057 201.82726940746304 0.7015690804576511
2.0274711394529144 12.282553438721823 28.989830981800857 212.90386884840893 0.7210846254366703
2.036283273059409 12.22608946305578 26.868624716498545 224.71562951962068 0.7416268937693831
2.0440268740911205 12.167495885148687 24.94086029091492 237.32369151128893 0.7632729414064668
2.050687127656652 12.106791006318998 23.187145556429535 250.79493211500167 0.7861054004332105
2.056259455116915 12.044047609971622 21.592707729412265 265.20248764816284 0.8102125485574739
2.060707551773426 11.979199025073548 20.140452571187065 280.6280089181437 0.8356937845879716
2.0640139185494126 11.91230393888291 18.820768101592982 297.1613082861727 0.8626563440777705
2.0661755963183235 11.843405713801804 17.6182990059964 314.9027534599057 0.8912206784617229
2.0671678384340355 11.772516644979547 16.522487006009037 333.9617199476929 0.9215125431216508
