M[M_sun], R[km], Lambda[1], P_c[MeV/fm^3], rho_c[fm^-3]
0.24162668629717493 15.618656898711224 2160425.4255784233 3.5677272577965504 0.1711233750220791
0.2536372800150305 15.277454434493857 1723332.5899887602 3.7847097332258146 0.1738868035419617
0.26602642602246906 14.981571492814615 1383327.1500004095 4.011170516280818 0.17666387000771158
0.27879554046619 14.723875611648651 1116848.6264009192 4.247369114198444 0.17945334919495404
0.29194338179469836 14.498804332543648 906267.2737377136 4.493929047908564 0.18226177708952868
0.30547132962230533 14.30163844987254 739029.3523632308 4.750997916253835 0.18508470319986745
0.31937841332555394 14.128647331678783 605405.5669151455 5.019271007053479 0.1879290322651684
0.3336684172874062 13.976449185603439 498057.04095216445 5.2989545022309645 0.19079103812119197
0.3483409166485931 13.842516103553379 411294.35617479 5.59079744814721 0.19367743173662264
0.36339409054416244 13.724496753414792 340929.1438563758 5.894941237910807 0.19658279860057773
0.3788388801181698 13.620471657683748 283564.9644727792 6.212260409418164 0.19951504039937173
0.39465968370608057 13.528952916151141 236651.3515743689 6.5430318720228 0.2024706834080954
0.41087563750415934 13.448329728382154 198076.09098545255 6.887918798844509 0.20545277741177226
0.427472113616499 13.377515087113423 166272.0351290525 7.247643000953885 0.20846470785145868
0.444455870908705 13.315336469795975 139964.08206708852 7.6224912953204695 0.21150246918381468
0.46182522090088346 13.260984132349321 118131.1826260962 8.013356697861214 0.21457136135521623
0.4795784658002303 13.213511434683003 99946.48753979098 8.420968737032613 0.21767344204296707
0.4977240484977828 13.172301572262665 84763.06619999785 8.845805913556589 0.2208067276979651
0.5162482746392276 13.136704987236362 72047.04034308207 9.288665832535743 0.22397356165392676
0.5351527894035928 13.106119080164124 61369.173241169505 9.750467027740655 0.22717737330742613
0.5544471369378239 13.080050381421485 52386.14992535542 10.23201739191545 0.23041951087553747
0.5741135587450812 13.058046515165175 44803.76872395863 10.733841298083847 0.23369735553509496
0.5941612376817161 13.039719118577862 38393.069103536815 11.257076322824535 0.2370157573549593
0.6145804116752075 13.024674636387955 32681.50988211583 11.802708399361304 0.24037697581608813
0.635367181908119 13.012572152752291 28345.327186696017 12.371714347271054 0.24378263994670216
0.6565194708936595 13.003123673461392 24417.497846374292 12.964855724282225 0.2472315284717778
0.6780419571080611 12.996065449644982 21069.64401015586 13.583312928483918 0.2507267993967108
0.6999134292542404 12.991124730882058 18209.01077859912 14.2283501802694 0.25427187561109227
0.7221314778270099 12.988026957753863 15761.402306359576 14.901154314910956 0.25786873628414253
0.7447023103093913 12.986661061277944 13662.343827904817 15.602849740512363 0.2615182414001592
0.7676060041640945 12.986749176213413 11860.870372456047 16.334510941578763 0.265220385099264
0.7908351071506284 12.98810679497072 10311.290033326504 17.097841350440433 0.26898077716910074
0.8143925754713945 12.99062014348223 8976.965719661128 17.894292253117097 0.27280184278314745
0.8382574806825277 12.994067299941563 7824.734751526611 18.72534851122204 0.27668575058955525
0.8624214796689824 12.998324103175898 6830.404538636186 19.592111746864568 0.2806308283018925
0.8868788800003973 13.003257662202753 5969.807373678868 20.49677844900733 0.28464447725269676
0.9116201848079848 13.00874353370542 5223.80451969654 21.44113773709055 0.288729700841901
0.9366249130055231 13.014634103365953 4576.862052288503 22.426825690535814 0.2928876617869549
0.9618853007162682 13.020818511205603 4015.0378812377444 23.455557756280413 0.2971196946891979
0.9873934732457458 13.02720478469345 3525.603226387491 24.529897343621823 0.3014330904369844
1.0131185794969664 13.033662232641467 3099.897329328006 25.651965975146002 0.30583083395075944
1.0390632758884022 13.040118509647133 2728.677430251506 26.823357899270054 0.3103114909329557
1.065201307923403 13.046451988511848 2404.6131907029303 28.047336482084916 0.31488509603902526
1.0915133037440414 13.05256871786312 2121.435246530984 29.326166481470153 0.319553563038851
1.1179941295536993 13.058409942201905 1873.7478487309393 30.66217214800899 0.32431864708921665
1.144608539211565 13.063869574694962 1656.73885917993 32.05905427910954 0.32919050105478986
1.171355880297937 13.068898576363727 1466.2411420665267 33.51868161519586 0.334166363352652
1.198200184573161 13.073376301306569 1299.142795623281 35.04540553941519 0.33925865376213865
1.2251262023795224 13.077243070541922 1152.383177835624 36.64165665934312 0.34446669610277525
1.252106997068976 13.080427694595643 1023.1588892267173 38.31193281262448 0.34980160561224444
1.2791346061744007 13.082883188357014 909.4974714970045 40.05901285425139 0.35526321930860355
1.306164070583898 13.08449399670719 809.1561752153355 41.88809971461324 0.360864535960908
1.3331874686829315 13.085225530847582 720.7622180126526 43.80230854295404 0.3666055195588238
1.360183831088849 13.085048306059386 642.6493561960951 45.806985932377756 0.3724976270457481
1.387104171960641 13.083823631806318 573.5419269218736 47.90711673652631 0.37854893294729725
1.4139404658256736 13.081547380330953 512.4650598554128 50.10704274420475 0.384763032174589
1.4406694365919162 13.078161434639743 458.3173386111662 52.412739344902334 0.3911508745081651
1.4672431855957802 13.07357415664191 410.3381449052236 54.83021916784657 0.39772212131674106
1.4936492840681113 13.067758313539619 367.6976884724945 57.36564741320006 0.404485792257854
1.5198534980150231 13.06066167309611 329.90162534764204 60.025625182527975 0.41145161368097516
1.545832194353552 13.052216855094613 296.2678660324894 62.81722869782537 0.41863007675786873
1.571543189557898 13.042387710943986 266.33431839984434 65.74805227209332 0.4260325003503034
1.596958656370142 13.031104990551007 239.70489770596257 68.82625541181888 0.433671099169594
1.6220508005829528 13.018339616475068 215.94824868538817 72.06061447897314 0.44155905785032135
1.6468009224245381 13.004061814577822 194.7456598888931 75.4605793937262 0.44971061163574677
1.6711554116704477 12.988192970126828 175.82407297576427 79.03633591980059 0.458141134456034
1.6950850717872727 12.970705679263043 158.897947965214 82.7977623807919 0.46686267100274775
1.7185749616676476 12.951563122311498 143.76345469508067 86.75721791529156 0.4758953754888562
1.7415741968718539 12.93071710817832 130.22791892486333 90.92718668145885 0.4852573868079653
1.7640569549860705 12.908131659615416 118.08303145545732 95.32038515936947 0.49496529387690447
1.7859893380337137 12.883762843050226 107.19381591161516 99.95177403183297 0.5050418647049427
1.8073245298721925 12.857557713744733 97.41579205558756 104.8371345256444 0.5155100357905038
1.8280699637622906 12.82955781976937 88.63322376771131 109.9922649304512 0.5263897631763081
1.8481546972621044 12.799652138789908 80.74002384231699 115.43590464146604 0.5377087914177576
1.8675577889258852 12.767834986829103 73.63870520434195 121.18773058395091 0.54949465625433
1.886245829731768 12.734080694720634 67.23830343387198 127.26895438665863 0.561776618789776
1.9041765714936547 12.6983234635915 61.472327194435195 133.70269588264497 0.5745866253974978
1.9213425115550622 12.660606757946812 56.26807516022553 140.51300813608577 0.5879554612480985
1.9376909133293967 12.620858475412941 51.56859496809703 147.72804790173987 0.6019234318267676
1.9532083018155557 12.579092137638298 47.325733486741136 155.37721136715308 0.6165297005280086
1.9678666489935168 12.535312393602993 43.48920787571265 163.4922115897851 0.6318155852878445
1.9816101665743864 12.489413773517425 40.01536375329756 172.10810346523186 0.6478274130354541
1.994442298212996 12.441483541854137 36.86789947102335 181.26348793036402 0.6646164355924553
2.0062963629677713 12.391385239412624 34.020150700847395 190.99996127760386 0.6822361911003847
2.017181383089954 12.339235373664312 31.43482181643144 201.36329025394014 0.7007455632279175
2.0270578950341043 12.284971169016428 29.089502553129556 212.4038748235118 0.7202092925603792
2.0359137918077965 12.228635783986732 26.95924247177157 224.1758164174769 0.7406938139712003
2.0437019109384362 12.170168666642798 25.02227353510857 236.74082082257286 0.7622787781491402
2.050408182548691 12.109592832088138 23.26374202476305 250.16404142037476 0.7850420208826837
2.056023198404696 12.046948297882123 21.66218486175606 264.51973745479626 0.8090764125687617
2.060520154906861 11.98223328044371 20.206829731053084 279.8886523068637 0.8344794554715428
2.06388399747013 11.915485818597006 18.879628995234594 296.3602658240574 0.8613585117574623
2.066098441028608 11.846715101059061 17.672142828061652 314.03260750006086 0.8898277459245496
2.067147835322723 11.775956034180851 16.572830584827685 333.0167363882572 0.920020017074276
