M[M_sun], R[km], Lambda[1], P_c[MeV/fm^3], rho_c[fm^-3]
0.24162668629717493 15.618656898711224 2160425.4255784233 3.5677272577965504 0.1711233750220791
0.2536392354649211 15.277439233841884 1723279.3291038035 3.784752855245283 0.17388734103713163
0.26603204198772995 14.981428998747635 1383179.1646812428 4.011261164471359 0.17666496543759738
0.27880269028041277 14.723755340754717 1116658.5670628292 4.2475103523437765 0.17945498734459855
0.29195367091395175 14.498665163208246 906121.637591 4.49412457911665 0.18226395437491114
0.305484116979 14.301505635835383 738931.0423943069 4.751254376131799 0.18508747345601048
0.31939605639166113 14.128424069843925 605267.7574422625 5.019590281494797 0.1879323448607257
0.333689016047275 13.976258331593368 497908.71737034415 5.2993449926188205 0.19079496971145696
0.3483644526706671 13.842283952513979 411176.31822960725 5.591260126092849 0.193681908273025
0.3634198209815917 13.724329063357214 340827.2145191124 5.895486493060143 0.19658791975232856
0.37886803659679835 13.620316610257062 283464.34610134136 6.2128948352312445 0.19952082559888862
0.3946952468308131 13.528745086014982 236539.4835446571 6.54375480647376 0.20247702256659372
0.4109135358559048 13.448148811961074 198001.81690210538 6.888744191433566 0.20545980680142323
0.42751358809144563 13.377339720484995 166208.32267299254 7.248578591132782 0.20847244774923748
0.4445026152490198 13.315182614883392 139900.89272382864 7.623534494150523 0.21151077371727656
0.4618772406490063 13.260807880217557 118068.22469787167 8.014525692324323 0.2145804044724798
0.47963455729789145 13.213377360658034 99890.44491213883 8.422272635623353 0.21768324553755264
0.49778357056507927 13.172187856188005 84714.10151634547 8.847239906084557 0.22081711041656546
0.5163142475115292 13.13658555597804 72007.19165761009 9.290253113717023 0.2239847362123984
0.5352248614050243 13.106002383487612 61332.20945963975 9.752218351151177 0.22718936379452406
0.5545232662274572 13.079956667506435 52353.734282888094 10.2339441641812 0.23043234242719104
0.5741949245968792 13.057978481701804 44776.04133438529 10.735935146131164 0.2337107986881517
0.5942465760785655 13.03965641709829 38367.12960209917 11.259368718143834 0.23703008028239816
0.6146733499717913 13.024596371112551 32937.767631769944 11.805212873240107 0.24039220719589366
0.6354661649281075 13.012502996141528 28325.47461647785 12.374445274707506 0.24379880997069633
0.6566291113013037 13.003083638093589 24206.6489125657 12.96780056515909 0.2472483599746411
0.6781509441383198 12.996034495534726 21052.98171641765 13.586513476045997 0.25074461918805846
0.7000297271076102 12.991099854660277 18194.635941397737 14.231823580962358 0.2542907189793709
0.7222547991682559 12.988009031564825 15748.801155949648 14.90491881627285 0.2578886406218824
0.7448319010018499 12.98666004124991 13651.624402716774 15.606888051873527 0.26153888256911967
0.7677412792834103 12.986747917063283 11850.641028123091 16.338877716078382 0.26524215237491977
0.790976726734324 12.988117411303755 10302.56190216688 17.102558485232308 0.2690037149982377
0.8145392357214921 12.990638715411858 8969.39892146637 17.89938309632794 0.2728259984701702
0.8384128550370094 12.99408604763521 7818.161822688224 18.73079049032438 0.27671075366777487
0.862582774430008 12.998354297033492 6824.282705600238 19.597975573294818 0.28065713559296324
0.8870463263458997 13.003294421776356 5963.993058046505 20.503092320362732 0.2846721456159574
0.911796938920412 13.008779915320101 5218.797904620938 21.447931780826334 0.28875879096971097
0.9368054784903517 13.014667278004787 4572.218515445979 22.43407161733836 0.29291775724168756
0.9620736862510876 13.020868000333456 4010.7470203528146 23.463346431512456 0.29715132681355616
0.9875877634816352 13.027258364486686 3522.0956939059815 24.538265394500968 0.30146633273062695
1.0133246490202086 13.033716662439689 3096.9717271442973 25.66088102634435 0.30586523885027583
1.0392711549054532 13.040166236776965 2725.852450162307 26.8329288555398 0.31034764828230504
1.065416076708011 13.046504113015208 2402.1479673476315 28.057608102871374 0.3149230952307574
1.091733261120576 13.05262283919728 2119.2032077532817 29.33710238308501 0.3195929255699867
1.1182222743290962 13.058462606467842 1871.7695539269203 30.673902788150123 0.324360027682441
1.1448440549383332 13.063928019994806 1654.8712433031562 32.07163464225336 0.3292340088444229
1.1715961903655119 13.068938911111928 1464.5974990817444 33.532071555754804 0.3342114888328963
1.1984465969271505 13.073414959189797 1297.6923125967098 35.05976144008209 0.3393061248337506
1.2253793786335374 13.077281321873722 1151.1202858708762 36.65693688866805 0.3445159877572488
1.2523648527280629 13.08045289919912 1022.0131835581882 38.328313021377916 0.34985349452267656
1.2793980445511306 13.0829005514168 908.3842688537079 40.07645037324528 0.3553171651668719
1.3064337694172177 13.084504133675862 808.2651535250769 41.90666655884535 0.36092066634388625
1.3334616747059718 13.085232815606087 719.873775747623 43.822212681955676 0.3666646849535994
1.3604637360423204 13.085045342399722 641.9044310943414 45.82818569320681 0.3725592730704692
1.3873863728076055 13.083806076046134 572.8852005602444 47.9297025848853 0.3786132195625974
1.4142355873001173 13.081530800128101 511.80786648803763 50.13126209571636 0.3848308974665523
1.4409606093152016 13.078120066397597 457.7465363757737 52.43855378481309 0.3912217512883252
1.467540341588365 13.07353048804076 409.79268957093433 54.85774288778636 0.3977962102207859
1.4939476468317618 13.067684998832702 367.260444867798 57.395003848972266 0.40456330942226665
1.5201545036058497 13.060570536001661 329.4885770423451 60.0569478412165 0.41153279201499643
1.5461343470801874 13.052110487478084 295.8866160777726 62.85066206737726 0.41871516734144903
1.5718479791050364 13.042261716238688 265.9992807238908 65.7837528225542 0.426121773971547
1.5972639251612504 13.030959212656589 239.39881885725495 68.8643926985179 0.43376484801679704
1.6223556745255956 13.018182403708462 215.67996823530348 72.1013723592139 0.44165759737548926
1.6471071551850431 13.003874447597946 194.49933112929313 75.50415736997851 0.44981428260852635
1.6714608668085502 12.98798295983183 175.59736163073273 79.08295062400848 0.45825030522928656
1.6953959382618486 12.970475368025825 158.7021989837731 82.84741134456316 0.4669767641768929
1.7188606006431117 12.95126476626313 143.59444824971135 86.81038369044082 0.47601576981151017
1.7418763649086664 12.930428900032735 130.0571413433882 90.9838914089914 0.4853835339544653
1.764355995820369 12.907815485762002 117.93010318562189 95.38117443776095 0.4950986791272816
1.786284400443891 12.883417062972196 107.05529945533236 100.01670077179008 0.5051819737930033
1.8076265400670226 12.85720293738809 97.28534017238206 104.90653502773345 0.5156574079021591
1.8283572321325754 12.829152677433399 88.51967757627091 110.06679922722886 0.5265460734052352
1.848435961589538 12.799211816909784 80.63575394800044 115.51568954197643 0.5378735994905595
1.8678326691046074 12.767363508350503 73.5367736900281 121.2732043567417 0.5496686495330887
1.8865135690885284 12.733574305314068 67.14995229391621 127.36059633058981 0.561960543440022
1.9044486576346475 12.697812495325444 61.38606819380318 133.80076995541233 0.5747803721340606
1.9215872747711016 12.659999964932247 56.19344008060188 140.61826097725245 0.5881605338083239
1.937940017970236 12.620266377923418 51.50022421635141 147.84118486806142 0.602141056410402
1.9534427019731893 12.57844945516111 47.26573466010279 155.49855177184966 0.6167596527412543
1.9680824188158532 12.534595072485875 43.43341902924105 163.6228705923137 0.6320602356504726
1.9818177999326878 12.488667860115621 39.961800289677555 172.24851735327292 0.648086671927185
1.994625012238439 12.44065816447204 36.82145585914513 181.41454591954036 0.6648915898142777
2.0064795899637473 12.39055752556639 33.97441893405199 191.16264299564114 0.6825286459759741
2.0173629340649213 12.338390114987321 31.395454865661044 201.53867626031607 0.7010568560888318
2.027216482654045 12.2840627388336 29.05127494638982 212.59312470107383 0.7205409971421393
2.036040501744791 12.227637258934436 26.923863879485797 224.379859728574 0.7410465076920139
2.043825526977979 12.16915961604461 24.991429204131933 236.96126101339937 0.7626549641141325
2.0505140961337514 12.108536073583323 23.235169128468247 250.40253903965964 0.7854440739590581
2.0561110296736826 12.04584069491773 21.636312783825932 264.77779236965176 0.8095058309397559
2.0605947639435436 11.981095144708892 20.181738412554523 280.16822398101124 0.8349388354241781
2.063939337462142 11.914296190836442 18.85749295261703 296.66301703108206 0.861849022960141
2.0661281518160357 11.84546341698713 17.65199127935674 314.3614678607819 0.8903541866802093
2.0671552915302094 11.774657914090309 16.55410635169643 333.3738717942623 0.9205840839202862
