M[M_sun], R[km], Lambda[1], P_c[MeV/fm^3], rho_c[fm^-3]
0.24162668629717493 15.618656898711224 2160425.4255784233 3.5677272577965504 0.1711233750220791
0.2536437454462642 15.277279394736322 1723239.715666603 3.784813999427179 0.17388810316986203
0.2660394037119312 14.981273990663663 1382942.8726664947 4.011389700143948 0.17666651871534403
0.2788141196744231 14.723529482600096 1116441.4540730296 4.247710626421041 0.17945731022208822
0.29196785185427954 14.498453650738458 905986.3359516796 4.494401845237835 0.18226704179752065
0.3055037946002053 14.301227110454034 738703.9332141659 4.751618046784812 0.1850914017931389
0.3194195972077 14.128150866841588 605126.2609868589 5.020043033767626 0.18793704234030262
0.33371657991400383 13.97599549812539 497699.1604915442 5.299898743884164 0.19080054506785946
0.3483968965021566 13.842061303100584 411026.504601388 5.591916257076436 0.19368825652078664
0.36345910667239845 13.724017332021178 340668.07074747706 5.896259741835769 0.19659518226846615
0.37891198795692244 13.620029674412041 283324.25949376397 6.21379455646597 0.19952902997321442
0.39474346420490325 13.528489539381189 236421.96766897204 6.544780064181861 0.20248601269163843
0.41096717103435004 13.447907994327363 197873.82675564414 6.889914774390744 0.20546977597710261
0.42757505674328267 13.377089599600813 166098.43755728938 7.249905480612341 0.20848342476584922
0.4445692189196448 13.314975722754184 139817.3720080662 7.625014021070082 0.21152255170288894
0.4619500286139289 13.26059255219259 116676.79998431416 8.0161836581558 0.21459323017859408
0.4797135917020638 13.21318352044928 99827.71010327442 8.424121964904531 0.21769714990843217
0.4978702529862262 13.17200430460097 84652.63486947733 8.849273778659853 0.2208318365230175
0.5164075590425471 13.13641839929207 71945.28954568782 9.29250443735019 0.22400058567112957
0.5353253027421062 13.105859856146072 61282.483108273686 9.754702385543931 0.22720637080885286
0.5546304253729113 13.079845457041248 52306.82266696013 10.236677096062762 0.2304505426874021
0.5743121390773478 13.05785617044821 44735.53290069418 10.73890510022587 0.23372986671341633
0.5943670590248821 13.039549157793335 38332.26296395026 11.262620348675853 0.2370503965288047
0.6148035959383221 13.02451623054724 32905.967693503284 11.80876538301983 0.24041381238258605
0.6356058046919614 13.012433650192584 28296.22151793593 12.378319064292844 0.2438217469662778
0.6567762337418928 13.003030555065894 24374.126520011017 12.971977845909324 0.24727223559843486
0.6783070337563499 12.995982246178981 21030.60347561067 13.591053552598975 0.2507698971179461
0.7001942759786878 12.991061505316983 18174.803161327454 14.236750788342487 0.25431744931988054
0.7224271570288903 12.987994679233244 15731.964630468796 14.910259052736778 0.2579168764650845
0.7450141453048956 12.98665133994925 13636.23592921429 15.612616786216702 0.26156816405906236
0.7679333675261684 12.986749916360314 11838.169428111594 16.34507250800216 0.2652730318589523
0.7911770425977669 12.98813296107621 10290.613668622616 17.109250414490226 0.2690362555841416
0.8147508035507066 12.990662698259644 8957.861712006435 17.906605302780793 0.2728602673233765
0.8386300948006306 12.994130721536571 7808.438536951383 18.73851094482401 0.27674622516153025
0.8628114243495286 12.998395448625171 6815.644668427953 19.606294633428803 0.28069445796922776
0.8872806441226642 13.003355602351828 5956.104856234134 20.512050011478472 0.2847113996073385
0.9120442851168071 13.008843174240882 5212.089465256787 21.457570868518534 0.2888000627518546
0.9370630953946957 13.014732466891001 4566.076828560964 22.444351955658334 0.29296045591433173
0.9623407756704413 13.020927094196002 4005.21230449031 23.474396993715153 0.29719620643010325
0.9878648452114533 13.027329425319186 3517.15924756913 24.550138175581075 0.30151349765358443
1.0136055876936527 13.033781258325456 3092.351818785123 25.67353007768895 0.3059140539754844
1.0395671364908148 13.040234940156644 2721.903289256227 26.84650876643032 0.31039895074032103
1.0657179617911923 13.046564410472401 2398.780321097698 28.07218241649591 0.3149770119542518
1.0920486230420856 13.052694529783066 2116.0934260569306 29.35261945741561 0.31964877751004467
1.118544650547791 13.058529359353187 1868.947167956252 30.690547820375645 0.32441874411218774
1.1451750535629153 13.063983359121055 1652.4368458941226 32.089395710698305 0.32929516269801284
1.1719369030399416 13.069005862704905 1462.3321700102376 33.55107164580553 0.3342755210953585
1.1987910151951378 13.073455984615428 1295.6780068649155 35.08013258290568 0.33937348668043893
1.2257361764965664 13.077326161273676 1149.311658330642 36.678619985084964 0.3445859340698186
1.2527306839745316 13.080489749948265 1020.3759209036482 38.35155745637177 0.34992712779705026
1.2797715983903466 13.082932144797883 906.9145939323397 40.101195570938756 0.3553937185416991
1.306813986507098 13.084525708878967 806.8883103773096 41.933014768355626 0.361000320972972
1.3338511578149246 13.085240179425526 718.75774249396 43.85045919699237 0.36674864820431025
1.3608581933103021 13.085034321094078 640.7524639400461 45.85827134693474 0.3726467580646829
1.3877874593334778 13.083781005899665 571.9155861143573 47.96175583278737 0.37870445345314024
1.4146440522412165 13.081488772668028 510.9283577486965 50.16563426939929 0.38492721208510366
1.4413660732364442 13.078039602447644 456.9843881726501 52.4751903384111 0.3913223415379749
1.4679600188310604 13.073448776840445 409.10514307449216 54.896805978907544 0.39790136103674034
1.494369189639312 13.06758222326797 366.6134666264779 57.43666876700797 0.4046733277612323
1.520580243102706 13.060443469344587 328.90860472327176 60.101404182747466 0.41164800866304835
1.5465629296938193 13.051958634484595 295.35384353452616 62.898115028830944 0.4188359389010264
1.5722786653948106 13.042083041365792 265.5264740769209 65.83442462316843 0.42624848504679275
1.5977027814398113 13.030757981875004 238.97863827202372 68.91852414825084 0.4338979136187089
1.62278970888258 13.017943165140016 215.28269757013584 72.15922458804356 0.44179746557091815
1.6475419654968428 13.003607354205023 194.14473129378788 75.56601373706917 0.4499614374399434
1.6718909503196409 12.987676924102852 175.2757001396721 79.14886444418302 0.45840420761695244
1.6958287015259126 12.970135594199185 158.40005222787593 82.91788785251325 0.4671387189869013
1.7192934549252645 12.950897889054698 143.3201355231733 86.88585395225475 0.4761866728224435
1.7422947913494953 12.929995693620604 129.80768297636286 91.06438684509021 0.4855626066704803
1.7647790084015702 12.907353546122442 117.65845476431532 95.4674701044896 0.49528803108897035
1.7867031241719955 12.882925469882654 106.84823483473406 100.10887179736358 0.5053808748674642
1.8080427011919886 12.856675197102655 97.10838945503207 105.00505914467749 0.5158666240710044
1.8287538494282338 12.828547566656152 88.35086682450356 110.17256634471703 0.5267678061478072
1.8488340480198837 12.798591013402511 80.48328893969696 115.62896117771666 0.5381075796029623
1.8682221360507991 12.766688900651518 73.40062113653795 121.3945553582152 0.5499156757019079
1.8868930554857621 12.732847509068245 67.02390018087883 127.49070766730304 0.5622216758546289
1.904817379159466 12.697040816213418 61.27216636371195 133.9399087817102 0.5750550753793947
1.9219612309401364 12.659233975937598 56.08854433211745 140.7677038142098 0.5884517052849555
1.9382766492616477 12.619358312408604 51.40500924472122 148.00182617172155 0.6024500579503955
1.9537765868731631 12.577519862812379 47.17246048026819 155.67084517829093 0.6170861659932737
1.968394996149663 12.533603039497967 43.34929099088044 163.8083121421205 0.6324073285963778
1.9821135090633473 12.487613054321063 39.88888801953663 172.44790434211671 0.6484548182015627
1.9949066744318962 12.439546586020507 36.75543905817012 181.6290533034726 0.6652823179884235
2.0067451158902694 12.389396430763087 33.909687800634885 191.39366297821823 0.6829439533693209
2.0175960967573086 12.337134370837903 31.335891734840708 201.78774455486766 0.7014989277430995
2.027435800388941 12.28275959580093 28.998098293643256 212.86130956635296 0.7210101705189543
2.036249656492129 12.226305922130685 26.875579622666358 224.66964189429387 0.7415474030641956
2.043999571807465 12.167723272561844 24.947884279088413 237.27405150687534 0.7631883006389332
2.0506628522185237 12.107029834275975 23.19309202953905 250.74127492414124 0.7860151060928069
2.0562392478247693 12.044296614510818 21.598018341816534 265.14431732247516 0.810115749755905
2.06069338625153 11.979457907883589 20.146385400984144 280.5650981750824 0.835590596327004
2.0640028623684814 11.912574578369487 18.82556975740652 297.0930548469826 0.8625457612765552
2.0661686293797126 11.843686976804038 17.622407674720172 314.8286092625533 0.8911019881848029
2.067166358992587 11.772808125953608 16.527080448418086 333.8811959852773 0.921385361955224
