M[M_sun], R[km], Lambda[1], P_c[MeV/fm^3], rho_c[fm^-3]
0.24162668629717493 15.618656898711224 2160425.4255784233 3.5677272577965504 0.1711233750220791
0.25364599947247307 15.277240927551476 1723116.4905310862 3.784857433218175 0.17388864455111364
0.26604361463081816 14.981179475140236 1382777.2696765917 4.0114810072937095 0.17666762210836312
0.27882152619913053 14.723382116592076 1116360.3339373386 4.247852896664291 0.17945896034251324
0.2919786343329189 14.498272679353619 905687.5235611267 4.4945988125485385 0.18226923507423906
0.3055159911012452 14.301084878825009 738531.5233827418 4.751876399916844 0.1850941925000392
0.3194362702100652 14.127955750433049 604979.483341263 5.020364676540225 0.18794037950821102
0.33373586125793436 13.975811590013064 497576.68480193365 5.300292145202961 0.19080450596636891
0.3484202595255147 13.841865068179946 410905.95402515784 5.592382399910739 0.19369276658093998
0.3634857255469124 13.72383187599561 340559.4351812948 5.896809099829147 0.19660034195499648
0.37894226662699887 13.619846391265458 283219.9589131143 6.214433778683119 0.19953485891016118
0.3947779178863869 13.528311058994921 236325.9853371364 6.54550848768651 0.20249239998172225
0.41100642460947623 13.447721048810003 197793.90706529512 6.890746462777811 0.20547685898441137
0.4276179181308359 13.376918802622157 166021.16970247772 7.250848239594509 0.20849122396930028
0.44461663789349937 13.314824364747626 139749.213147753 7.626065245641595 0.21153092012641336
0.4619999946400945 13.260435319881722 117928.3242647392 8.017361686045593 0.21460234317671628
0.4797702791458625 13.213045811357508 99764.04988533238 8.42543598368713 0.21770702949271276
0.49793101198480477 13.17188473763677 84604.79228794058 8.850718943905795 0.2208423001368697
0.5164742698694601 13.136304776323819 71908.92729556384 9.29410413877694 0.22401184766890364
0.5353974797794371 13.105743273696937 61244.22425675896 9.756467471327017 0.22721845552043823
0.554707912899646 13.079744970136623 52277.083622261685 10.238610114197574 0.23046336030142664
0.5743937059441191 13.05777789091813 44705.73335713178 10.741015531986005 0.23374341633904636
0.5944552780835863 13.039485836367794 38309.17076817826 11.26493097595635 0.23706483336986703
0.6148972296512969 13.024480901337665 32884.39538387258 11.811289858191971 0.2404291654036265
0.635706561179924 13.012392701289352 28275.58313146335 12.381071891562248 0.2438380466608079
0.6568813219696963 13.002988716349988 24356.482463216667 12.97494638370672 0.24728920254317857
0.6784186872478248 12.995955584703033 21015.028447224708 13.594279959773095 0.25078786088868543
0.7003120372159998 12.991048073618717 18161.518059092465 14.240252367326946 0.2543364455567658
0.7225504861476487 12.988002645560108 15719.247053244988 14.914054217803 0.2579369429333879
0.7451435346414258 12.986650190499107 13625.05825459262 15.616688101512388 0.26158897392224373
0.7680688184474654 12.986767650367216 11828.050641573485 16.3494751145445 0.26529497774835403
0.791320396551071 12.988144426000115 10282.678903583663 17.114006411924237 0.26905938238914734
0.8148985010880414 12.990676642190753 8950.007547133288 17.9117382560921 0.27288462281981485
0.8387873787411135 12.99414432455829 7802.014006217585 18.74399808584885 0.27677143573541635
0.8629729500167705 12.998432267080922 6809.3732492989475 19.612207317841655 0.28072098445525334
0.8874581821860631 13.00338721672061 5950.6819853904135 20.518416701976648 0.2847392994322725
0.9122214677822653 13.008876549577039 5207.192943613985 21.464421977071826 0.2888293972146879
0.9372456760523792 13.014775531553259 4562.123440219227 22.451658940647327 0.2929908049700097
0.9625348124778977 13.02098348317009 4001.3723975836406 23.482251565589976 0.2972281061803076
0.9880613457096219 13.027369332682914 3513.767512475359 24.55857731181218 0.3015470223355845
1.013808605621034 13.03382779450495 3089.644922477062 25.68252110833823 0.3059487520943347
1.0397765109409602 13.040294383221328 2719.1629592463046 26.856161624955384 0.3104354175016429
1.0659342354766421 13.046620120179787 2396.3604866045685 28.082542295924917 0.31501533765308054
1.092271434384374 13.052742048321237 2113.7946080315924 29.3636496364833 0.31968847938212386
1.1187746529069058 13.058576510998869 1866.783278392271 30.702380008590804 0.32446048292282337
1.1454120362853213 13.064037549424693 1642.6698169059607 32.10199128573396 0.3293384398532211
1.17218001511805 13.069037686071622 1460.8260378744026 33.56457837572385 0.33432104016778535
1.1990401077612571 13.073489904367355 1294.3118185500034 35.0946142284853 0.33942137355638774
1.2259906323133123 13.077359292897615 1147.9836122645424 36.69403451633459 0.3446356589615117
1.2529909419722194 13.08052030856202 1019.2767269849088 38.36797869440118 0.3499788672846516
1.2800383336086176 13.0829541445566 905.8532923274834 40.11878755417757 0.3554481422607381
1.307092204411067 13.084554830453586 806.0065492901576 41.95174666638664 0.3610569503385899
1.3341264393074659 13.08523799122789 717.85160359148 43.870541061905506 0.36680834189240785
1.3611388960802357 13.085029666237153 639.9988424786661 45.87966109438522 0.3727089565446913
1.3880792219138316 13.08377516836593 571.2128480536302 47.98454484037708 0.3787693183251923
1.4149266498971844 13.08144461894791 510.3178950928254 50.190072471369426 0.38499569062016953
1.4416594770635804 13.077998553024454 456.3780456280888 52.50123893369111 0.3913938612210486
1.4682567769087431 13.073386007637506 408.5969968263872 54.92458032847232 0.3979761245906609
1.494668231143194 13.06751054483549 366.15450384156446 57.46629357724086 0.4047515535820824
1.5208823667380058 13.060349090500857 328.51148896557254 60.13301434226254 0.41172993210744996
1.5468652387275519 13.051853145038649 295.0122385009374 63.06467743384371 0.4190963449829973
1.5530116910279332 13.035975805556086 284.7345820112914 67.27304762190091 1.9594175358483565
