M[M_sun], R[km], Lambda[1], P_c[MeV/fm^3], rho_c[fm^-3]
0.24162668629717493 15.618656898711224 2160425.4255784233 3.5677272577965504 0.1711233750220791
0.25364563539248786 15.277235427376084 1723074.60491138 3.784855141433112 0.17388861598511843
0.26604334785283007 14.981199391200724 1382924.8604533132 4.011476189432522 0.17666756388735397
0.27882123630035904 14.723388681209096 1116290.16101991 4.247845389657558 0.17945887327254795
0.29197809587117385 14.498280334095355 905770.2938819937 4.49458841933047 0.18226911934334372
0.30551530043021896 14.301090951502045 738535.9889648538 4.751862767501421 0.18509404524393477
0.31943389749698964 14.128006425463663 604976.5456798061 5.020347704427748 0.18794020341599346
0.33373579189695557 13.975795306396039 497577.9574116347 5.300271386460929 0.19080429696028164
0.3484190264704275 13.841875480563896 410912.4083274367 5.592357802627684 0.19369252859545996
0.36348482791109776 13.723816140337227 340557.93123033684 5.896780111270655 0.1966000696883205
0.37894095401471023 13.6198568511977 283218.4940649696 6.214400047928618 0.19953455132629458
0.3947756736903907 13.528321690838881 236343.73638531816 6.545470049675527 0.20249206293229316
0.41100440476470845 13.447730391612849 197810.3805328481 6.890702575306727 0.20547648522029097
0.4276155665709993 13.376946783176685 166023.61500898725 7.250798490687517 0.20849081240934228
0.44461352181529834 13.314830410309595 139756.21188631642 7.626009772724292 0.21153047852632267
0.4619969773267881 13.260445517032132 117928.46561561208 8.017299521327015 0.21460186228236006
0.47976711217518425 13.213053055665956 99771.60683764602 8.425366642247061 0.217706508142021
0.4979276382515037 13.171892997714615 84607.07339923692 8.850642681355062 0.22084174796341793
0.5164707523585594 13.136314321693304 71910.8238961318 9.294019720672546 0.22401125336018585
0.5353928185104515 13.105764696392555 61247.03830759096 9.756374325089391 0.22721781779199027
0.5547038221592755 13.079729282445946 52278.52941873141 10.23850862917827 0.2304626906285187
0.5743898880765176 13.05779197780452 44707.84311286548 10.740904159972132 0.23374270129621855
0.5944510597843785 13.0394594456562 38306.075899262665 11.264809038407954 0.23706407150185804
0.6148924292839916 13.024457842804614 32885.60103187181 11.811156634499413 0.24042835518129693
0.6357011041574906 13.012416061504307 28277.247871067557 12.380926616147756 0.24383718647429883
0.6568756584514917 13.002985617028534 24356.59585959473 12.97478972371514 0.24728830713890815
0.6784116622531543 12.995956054031664 21015.443371225894 13.59410969003177 0.25078691287238375
0.7003055309252741 12.991049719709379 18162.28634736452 14.24006757453936 0.2543354430468744
0.7225449290812254 12.98799561236689 15719.579737209053 14.913853929977467 0.25793588393615524
0.7451366608233351 12.98665039361477 13625.602173697634 15.616473238861879 0.26158787568689834
0.7680615560964689 12.986758491501496 11828.419585404761 16.34924276658695 0.2652938195520605
0.791312550308014 12.988150614551083 10283.115748935432 17.11375541211167 0.2690581618620545
0.8148901124193085 12.990690050536264 8950.132907788096 17.911467360517346 0.2728833374396826
0.8387788290283527 12.994154234268908 7802.51871218595 18.743708496212022 0.2767701052208728
0.8629648572428117 12.998427572891396 6809.521535777587 19.611895267674903 0.28071958448295486
0.8874504594011967 13.003378693019165 5951.168187804461 20.51808068880779 0.2847378269704669
0.9122113421655134 13.008880100676576 5207.447550964494 21.464060395518327 0.2888278490271851
0.9372356679612031 13.014778284175968 4562.2296266390995 22.451273297205393 0.2929892032267039
0.962524208168513 13.020986379366454 4001.5434914151724 23.48183701919754 0.2972264225842342
0.9880500478940836 13.027365785177889 3514.019557226786 24.558131910462848 0.30154525296746554
1.0137981097980155 13.033832241313545 3089.8148795121087 25.682046576491835 0.3059469207845498
1.039766077082787 13.040285550545075 2719.294578643062 26.85565215945862 0.31043349283273536
1.0659225624370106 13.046614264071776 2396.494244477493 28.08199551102176 0.31501331485796347
1.0922613124835066 13.052739834242377 2113.9537078575568 29.36306747054761 0.3196863839422071
1.1187631753973184 13.058573792467998 1866.8993764626537 30.701755508754825 0.32445827995918536
1.1453995512340323 13.064034584696511 1650.6597547499152 32.10132649076811 0.32933615568319813
1.1721664780550225 13.069038073410562 1460.9029845993343 33.56386548488507 0.3343186376521566
1.199027006484065 13.073495989268563 1294.3678505420414 35.09384987567608 0.33941884604886413
1.2259766589373025 13.077361248640559 1148.0796273348387 36.69322092028341 0.3446330344265926
1.2529778223070736 13.080522503456605 1019.256016408401 38.367112552118115 0.3499761398856363
1.2800241649391724 13.08294930084187 905.9217280293576 40.11785901730078 0.35544526967784545
1.3070782177258895 13.084553574209975 806.0618913498795 41.95075795664031 0.3610539613192379
1.3341127881918724 13.08523892590436 717.920151584272 43.86948108985809 0.36680519110730575
1.3585431626564561 13.08379796012307 646.4912497083842 45.9659665715216 0.6686731924578979
1.3630211332703377 13.064873263429611 625.8856179661263 49.03202271830901 1.3627713011281164
