M[M_sun], R[km], Lambda[1], P_c[MeV/fm^3], rho_c[fm^-3]
0.24162668629717493 15.618656898711224 2160425.4255784233 3.5677272577965504 0.1711233750220791
0.2536406332152523 15.277410528029497 1723212.8818442747 3.7847742869928123 0.17388760817352555
0.2660343664717803 14.981401234339637 1383142.78013424 4.011306217385499 0.17666550987547636
0.27880747203932854 14.723681204795605 1116557.2924824953 4.247580549711972 0.17945580152828444
0.29195856820498767 14.498575005754235 906061.3459075367 4.494221762016586 0.1822650365290569
0.3054902533470939 14.301440998596162 738841.6706823049 4.751381843264845 0.18508885034432204
0.3194032679923468 14.128359358380221 605258.3662411886 5.01974897080887 0.18793399132360764
0.33369854609917504 13.976144681047085 497822.0110309143 5.299539080655587 0.1907969238559369
0.3483746407795197 13.842257946857535 411159.55382224446 5.59149009640615 0.19368413329906886
0.36343417650682064 13.724205186294181 340771.2103270472 5.895757510683186 0.19659046520719764
0.3788837566175698 13.620213875218603 283413.4095833389 6.213210178339314 0.1995237011483364
0.394711471707252 13.528688138625562 236503.8091471321 6.544114146629292 0.20248017349431296
0.41093232325937407 13.4480859048092 197958.30841878804 6.88915446359051 0.2054633008512758
0.42753493878560844 13.377252698672006 166164.27646125611 7.249043643388455 0.20847629500736597
0.4445262983151235 13.315106490882858 139869.05191659927 7.624053040200107 0.21151490167725526
0.46190221465974907 13.260730945514439 118044.46545967777 8.0151067740774 0.2145848996096243
0.47966188056967707 13.21331190761628 99865.73407310492 8.422920782040016 0.21768811869251387
0.49781386791899546 13.172128186400231 84693.17648501201 8.847952726570364 0.22082227154144746
0.5163467051524414 13.136529350944306 71982.57241721016 9.291042140264413 0.22399029100848208
0.535258591074484 13.105965494435582 61315.94166651174 9.753088930882175 0.22719532424418717
0.5545606051619886 13.079934506152659 52335.99806835187 10.234901969012125 0.23043872103372415
0.5742337617152878 13.057966615958513 44759.561629870754 10.736976014014571 0.23371748138238368
0.5942876063729619 13.03960660724763 38355.51398804791 11.260508296935752 0.2370372003913122
0.6147190290729999 13.02458336794015 32925.99555783467 11.806457891567439 0.24039977898459103
0.635513417353142 13.012489316313689 28315.01469677628 12.375802880831763 0.24380684845729647
0.6566802468078932 13.003073945957597 24390.349341106376 12.969264524966706 0.24725672736857646
0.6782056778583542 12.996012686284635 21045.06357886327 13.588104570550847 0.25075347797598174
0.7000872356318029 12.991075479639784 18187.012217442705 14.233550336869563 0.2543000867144419
0.7223101268051899 12.988046575933485 15742.547611248165 14.906790307957438 0.2578985359038829
0.7448956421004139 12.98665009336681 13646.006239217735 15.608895682755337 0.2615491442464733
0.7678089721247794 12.986757626206725 11846.5737973326 16.341048663034712 0.2652529740010047
0.7910469596271262 12.988125909156343 10298.632359504914 17.10490363793398 0.26901511868169065
0.8146139093751619 12.99063728230213 8964.870665453267 17.90191406617355 0.2728380077411146
0.838488543020371 12.994106837417654 7814.554026121334 18.73349605376803 0.2767231843319023
0.8626629595267791 12.998360282962182 6821.317042572695 19.600890894361193 0.2806702147999913
0.8871303964748681 13.003312595252853 5961.442034085854 20.506231422657205 0.28468590164893726
0.9118832756086654 13.008799229548881 5216.346878406759 21.451309647930277 0.2887732540184637
0.9368968147035853 13.014694044719551 4570.036005273641 22.43767418211191 0.2929327202447676
0.9621664049557284 13.020886216563365 4008.6781648784904 23.46721888293178 0.2971670539893874
0.9876845278620254 13.027279663409123 3520.4254772493578 24.542425949400997 0.30148286064013663
1.0134252423610133 13.033745797798485 3095.5447129942813 25.66531358488117 0.30588234494733196
1.0393757875216163 13.040195649190064 2724.518024962494 26.83768758041456 0.31036562588798045
1.0655224681667184 13.046523999644 2401.042002157301 28.062715256393396 0.31494198881239593
1.0918437876003217 13.05264531510157 2118.09452795512 29.342539871114372 0.31961249718825774
1.118334650179173 13.058489314434892 1870.7568866982724 30.679735495503763 0.32438060293558096
1.1449613850471827 13.063945064937014 1653.9338021918484 32.077885930281624 0.3292556162261689
1.171716060611658 13.06895445096535 1463.9038307554276 33.53872943387885 0.33423392656863027
1.1985641459894598 13.073420744593252 1297.0467749441045 35.066899703177 0.33932972913461795
1.2255039141214707 13.077293638119535 1150.4322112587145 36.66453483093537 0.344540497542867
1.2524928710036667 13.080466530674636 1021.4328066880637 38.33645801191031 0.3498792960671237
1.2795295427902522 13.082913409089624 907.8673016590399 40.085121189346275 0.3553439897751559
1.3065674454935152 13.084512011499191 807.8224295804835 41.915899021774 0.36094857747803155
1.333598563136858 13.085234773753523 719.4530421070599 43.83211024127813 0.36669410561854643
1.3606015724955665 13.085042075346706 641.4455394465967 45.83872762058927 0.3725899275632848
1.3875277381317281 13.083798381463078 572.5551517082358 47.94093388127995 0.378645187457678
1.4143785544373424 13.081519567237208 511.4995363706369 50.1433058384709 0.3848646453609984
1.4411052887900264 13.078099142573175 457.48188587438557 52.45139086515393 0.3912569971013028
1.4676880214047971 13.07350114249784 409.5579300535956 54.87143011159323 0.3978330537656804
1.4940949164178978 13.067650110999226 367.05602053471523 57.40960262174056 0.4046018582255915
1.5203032237734397 13.060523382139094 329.2837134469534 60.07252457970043 0.4115731619494961
1.5462846818961224 13.052057402925191 295.7035201974286 62.867288652289496 0.4187574833219228
1.571998056467713 13.042197854620834 265.833843367748 65.8015070968939 0.4261661707201235
1.597420794866691 13.030893416506931 239.25629644573857 68.8833590166504 0.43381147090516975
1.6225073459971713 13.018098714896249 215.52456746470446 72.12164219246182 0.4417066033525343
1.647258870964895 13.003782253674135 194.36932243684944 75.52582997518998 0.4498658412227202
1.6716086983128347 12.987876267828382 175.48163764642817 79.10608914890213 0.4583044133424433
1.6955479791675123 12.970355412029733 158.60127346770182 82.87210382236343 0.46703350741896177
1.719019940554397 12.951165615497006 143.48776919563 86.83682558230538 0.4760756476869251
1.7420186072736885 12.930267475579752 129.97645721569808 91.01209372467474 0.48544627372596155
1.7645044813400408 12.907653782507175 117.84992367885042 95.41140865198383 0.49516501974425864
1.7864309457611816 12.883244845883619 106.97410370220663 100.0489932039235 0.5052516594605797
1.8077731637400822 12.857021608907306 97.22338554296775 104.94105301094356 0.5157307069118582
1.8284987156744903 12.82894824255506 88.45921975434551 110.10387119640363 0.5266238191979643
1.8485751367026695 12.798994373613656 80.58147055859222 115.55537361251234 0.5379555730863668
1.8679682582482107 12.767126873988394 73.49026429767987 121.31571861289504 0.5497551929788802
1.8866466669417243 12.73331953428748 67.10475904665925 127.4061792789989 0.5620520280537663
1.904577515797135 12.697541317339434 61.34521911427638 133.84951517585213 0.5748766103344654
1.9217302455115686 12.659771559881646 56.15517921935879 140.67061554671946 0.5882625404190821
1.9380602623650203 12.619954965398204 51.46699154486393 147.89746205220044 0.602249308374058
1.9535556331489703 12.578104402562767 47.23223076586508 155.55891045899278 0.6168740384953804
1.9681919477094638 12.53424672829701 43.402124663869 163.68786578268902 0.6321819348567016
1.981922459879982 12.488301030846605 39.93482855247447 172.31836615737097 0.6482156401068419
1.994723507245215 12.440268298717733 36.797277386798136 181.48969088872929 0.6650284674175994
2.0065672517708983 12.390148286031376 33.95066695480605 191.24357169170608 0.6826741324634839
2.017439754222756 12.337939123709662 31.37246265048023 201.62592649406483 0.7012117166472099
2.0272932375499213 12.283606639056842 29.033808081110642 212.6870705962972 0.7207053498652282
2.036122325642264 12.227193812259937 26.907251012060463 224.48136999789523 0.7412219706091524
2.043885933403645 12.16865749528155 24.9752358897142 237.07082980183904 0.7628417889635825
2.050568112941753 12.108010463628256 23.218951546690835 250.52119482353316 0.7856441007898458
2.0561540969063423 12.045291185698378 21.622612894428936 264.9061807797032 0.8097194767132909
2.060628805290787 11.980521846587372 20.16866872097922 280.3073204274288 0.8351673926239084
2.063964412113096 11.913696611912165 18.846552678742345 296.8136492019136 0.8620930740673284
2.0661420291957637 11.844839719837395 17.64111188902173 314.5250942413502 0.8906161203326669
2.0671605547235243 11.774010464968924 16.544855638991613 333.55157059690885 0.9208647449845863
