M[M_sun], R[km], Lambda[1], P_c[MeV/fm^3], rho_c[fm^-3]
0.24162668629717493 15.618656898711224 2160425.4255784233 3.5677272577965504 0.1711233750220791
0.25364190939652564 15.277343167357056 1723123.5572792878 3.7848021998684005 0.17388795609405414
0.26603784964839744 14.981284930197015 1383083.8442210518 4.011364895195948 0.17666621896218634
0.27881129118665704 14.72362927353454 1116547.9954507516 4.247671976975691 0.17945686194676563
0.2919646727221476 14.49851860733178 905931.240944386 4.494348337189018 0.1822664459729785
0.30549959355625067 14.301290690254028 738686.2489194265 4.751547863385666 0.18509064367848108
0.3194141386321618 14.128231546324367 605160.7802197293 5.019955658120281 0.1879361357842375
0.3337107410269293 13.976030626382451 497730.7887668915 5.299791875747644 0.190799469083051
0.34839070062703614 13.842108885681597 411056.1298953154 5.591789629721139 0.19368703136629015
0.3634522263370444 13.724049080515902 340691.63053745445 5.896110510549132 0.19659378065664135
0.3789034589726726 13.620079615523819 283348.1302936776 6.2136209154819815 0.1995274465765178
0.3947334743858885 13.52855155083646 236435.41585605306 6.544582193877548 0.2024842776363793
0.41095694492562046 13.447953979707487 197898.10798088374 6.889688855092973 0.20546785195355946
0.4275641261716879 13.37711736018307 166111.05068217978 7.249649392501651 0.20848130621453925
0.4445560900055835 13.31500036745542 139820.2878602701 7.624728472033113 0.21152027854894723
0.46193553021607164 13.260664195209065 118006.2662061598 8.015863667807599 0.21459075479454967
0.4796983831070176 13.213223491413832 99828.31541440256 8.423765038228424 0.21769446631880218
0.4978533050699649 13.172047577659319 84666.1069738842 8.84888123176981 0.22082899431581118
0.5163892059837408 13.136461933234598 71956.21253741969 9.292069917977694 0.22399752662765807
0.5353056433891105 13.10588907267362 61292.24648133201 9.75422294780132 0.2272030883242858
0.5546101693277266 13.079848268131382 52313.16345365515 10.236149615069774 0.2304470298697598
0.5742903956826535 13.057875294018332 44743.66465420859 10.738331867920847 0.23372618638445294
0.5943452803221031 13.039548358411674 38337.69304051812 11.261992745004001 0.23704647524970565
0.6147791798122805 13.024549716739365 32911.705170718495 11.808079700744416 0.24040964229031592
0.6355778407676383 13.012452411872657 28303.64167051667 12.377571364906714 0.24381731978273102
0.6567482515089135 13.003034034117306 24378.142444702084 12.971171562943555 0.24726762721563442
0.6782768459472146 12.995991587694682 21035.354525642695 13.59017723741623 0.2507650180297875
0.7001626739517001 12.99107291137328 18178.595658059432 14.235799742732326 0.2543122898510296
0.7223938750036056 12.988008747014307 15735.349869335372 14.909228276638649 0.2579114263632997
0.7449788140256686 12.986655815105854 13639.268200202516 15.611511014939019 0.2615625120897779
0.767896247128643 12.986752438196886 11840.000228750689 16.343876768178163 0.2652670713958316
0.7911377023395267 12.988135061083105 10293.012888460345 17.10795870553638 0.2690299744409084
0.8147099128832224 12.990659993876434 8959.919779289417 17.905211226306562 0.27285365253018745
0.8385878309849037 12.994122821829713 7809.903012149074 18.737020683872824 0.2767393781835413
0.8627658973023009 12.998390695654706 6817.245346580973 19.604688812530334 0.2806872536635946
0.8872383276788196 13.00332755699522 5958.082914879783 20.51032090263999 0.2847038223843057
0.9119969617775662 13.00882839605038 5213.373318640467 21.45571021458585 0.288792095970536
0.937013986753586 13.014711673541699 4567.202088047586 22.442367507033676 0.2929522136445186
0.9622898843838974 13.020917327241486 4006.4312599458394 23.47226384915809 0.297187543096238
0.9878108934690786 13.027309244004371 3498.7865844134144 24.5478462956513 0.3015043931026299
1.0135504998713603 13.033771248590181 3093.561862102612 25.671088333401833 0.305904630814027
1.039510828712499 13.040219900422084 2722.718806892535 26.84388730976877 0.3103890473490982
1.0656616699383352 13.046558957832925 2399.3098467663235 28.06936897788267 0.3149666038214446
1.091987214372194 13.052680381938101 2116.6938876654067 29.349624007474954 0.31963799572947393
1.1184833973342636 13.058515881060474 1869.4811294628848 30.68733460008005 0.32440740926938355
1.1451118525394988 13.063965810452526 1652.8737827329255 32.08597520652826 0.32928341018259066
1.1718720225723156 13.068988743412277 1462.8620139870907 33.54740373991048 0.33426315987431526
1.1987231677769756 13.07344309173112 1296.092984846105 35.07619996568977 0.3393604825814408
1.2256676048861546 13.077313982061966 1149.6176002806644 36.67443406772604 0.3445724309483848
1.252660332086781 13.080487170229757 1020.6569570682552 38.34707008314821 0.34991291278240805
1.279699517269809 13.08292361548375 907.1917575553167 40.09641843848045 0.35537893968980994
1.3067408117438633 13.084516644783182 807.1694764561406 41.927928132218 0.360984943301306
1.333775812359164 13.085231594406757 718.9247909579633 43.84500603444713 0.36673243858505783
1.3607814046355193 13.085036938360188 640.9555518697571 45.852463083022286 0.37262986842221846
1.387711183228467 13.083784203226811 572.1281428559647 47.95556766171118 0.37868683992067237
1.4145655499269751 13.081497637100435 511.1084424123871 50.15899834459344 0.38490861749250366
1.4412868351762238 13.078051564027966 457.0879072207968 52.468117193066476 0.39130292133093714
1.467879718791578 13.073460456765684 409.2458739785942 54.88926429790096 0.3978810601878124
1.494287391279702 13.067603043789555 366.73230867468476 57.42862469884606 0.404652086989393
1.520497914111375 13.060466382999087 329.02028987194285 60.092821112497425 0.41162576408443147
1.546480113991839 13.051987619736373 295.45382017584 62.88895332839701 0.4188126216450345
1.5721954631064474 13.042117732932946 265.6106309978577 65.82464137638947 0.4262240208338828
1.5976189173337985 13.030799517374673 239.0561606561952 68.90807284799067 0.4338722222957027
1.622699055003403 13.017960495672208 215.35540962821113 72.14805480209635 0.44177046059919334
1.6474576621633503 13.003662236163427 194.20615398756235 75.55407073930814 0.4499330253312988
1.6718066829668738 12.987736768709814 175.33325400915282 79.13615115878426 0.4583745476675666
1.6957447081890675 12.970201472037955 158.45579085201584 82.90428026030523 0.467107448779639
1.7192091988346736 12.950964161737428 143.37521291157535 86.87128201576493 0.4761536745558232
1.7422129276071954 12.93007891332979 129.86188203481169 91.04884449845407 0.485528030670147
1.76469342734272 12.907440441664852 117.75032003177951 95.45080764682359 0.49525146993630514
1.7866216332112173 12.883021685796693 106.88777346747324 100.0910747209374 0.5053424695486408
1.8079621395812795 12.856778076206032 97.14351260170113 104.98603517651223 0.5158262266347297
1.828674917723608 12.828660910521517 88.38306443887173 110.15218216253149 0.5267251349479157
1.8487570186291777 12.798709414747751 80.51021240798157 115.60708912998429 0.5380623994998107
1.8681465251715605 12.766820804764368 73.42580200424226 121.3711229792503 0.5498679759653443
1.8868200003365951 12.73298856662183 67.0491022584847 127.46558342017565 0.562171251691114
1.9047462570439357 12.697189671093872 61.29549626346331 133.91304106947146 0.5750020301730848
1.921892924688909 12.659394908627542 56.108188336588995 140.73884604942222 0.588395479385096
1.936475834680939 12.620794528113986 51.778839323525816 148.23980191995415 0.8775052795930318
1.943950794212567 12.579903568776151 48.872429258640906 157.13721018510427 1.2571329154347655
1.9450652971714628 12.532988813553391 46.90261344888238 167.5334843920323 1.6285132705285597
