M[M_sun], R[km], Lambda[1], P_c[MeV/fm^3], rho_c[fm^-3]
0.24162668629717493 15.618656898711224 2160425.4255784233 3.5677272577965504 0.1711233750220791
0.2536381951995447 15.27743519550734 1723247.1777891305 3.7847271170654766 0.17388702022313685
0.2660286646593516 14.981536297616005 1383305.4089692286 4.011207059235615 0.17666431160775414
0.27879762862504676 14.723869735899823 1116750.176359426 4.2474260511883415 0.17945400957823462
0.2919469968503437 14.498765024396636 906218.5140452711 4.494007871570776 0.18226265480930143
0.3054757245243015 14.301615988718849 738965.2860556646 4.751101301354856 0.18508581995627188
0.31938604631943784 14.128521060617684 595114.8857292155 5.01939971364458 0.18793036764572726
0.33367696504719424 13.976357874109349 497940.9606623868 5.299111916839076 0.19079262302509759
0.34835014105580736 13.84240594333175 411253.6598580215 5.590983962245662 0.19367923631183342
0.36340328697490293 13.724454470207599 340898.8868716327 5.895161039454088 0.19658486302318717
0.3788507901755361 13.620401361102374 283526.365887214 6.2125161560458135 0.19951737250067691
0.3946743223569354 13.528881525125959 236607.09211505085 6.543323296660356 0.20247323880847137
0.41089028432983726 13.448259135025848 198043.88411647375 6.8882515243205935 0.2054556110415494
0.42748822753611465 13.377438577292656 166250.61544298317 7.24802014677642 0.2084678278821943
0.44447525213652705 13.31526282780311 139942.97376067957 7.622911817676388 0.2115058168121628
0.46184642536824533 13.260896627426234 118108.32891460892 8.013827927544517 0.2145750066977894
0.47960078245452836 13.213481382156209 99923.161900502 8.42149434531144 0.21767739388243695
0.4977480857014686 13.172257706803501 84741.49248111444 8.846383961265785 0.22081091301036046
0.5162749428694172 13.136678463075597 72032.03116644973 9.289305668847433 0.2239780661414502
0.5351823904726611 13.106072805727335 61360.49148687649 9.751172986928243 0.22718220667771033
0.5544789304018967 13.08002737467487 51886.51158585912 10.232794071444022 0.23042468325821408
0.5741462353133209 13.058016177147723 44791.03604833974 10.734685322701743 0.23370277443458795
0.5941968452881539 13.039699389864815 38383.01726199503 11.25800037759207 0.23702153086586883
0.614619002332521 13.024645402113666 32950.856526877455 11.803717938019247 0.24038311549550648
0.6354074690620781 13.012549431473907 28337.49974358337 12.37281516358668 0.24378915796179082
0.656563494809672 13.003088983575454 24409.82563775651 12.966042763472664 0.247238313101022
0.6780853830392316 12.996057066736784 21063.186146919536 13.58460303559128 0.2507339823674442
0.6999602109752073 12.991106013308299 18202.65797949107 14.229750265986269 0.25427947114443744
0.7221803288813609 12.98803400306091 15755.975930067967 14.902671733677707 0.25787675944915767
0.744754642229537 12.986655895945454 13658.49078351378 15.604477522911811 0.2615265615440345
0.7676612962046374 12.986744030337725 11857.003212287387 16.336271115436663 0.2652291591244788
0.7908914963398808 12.988115333164126 10308.015761572164 17.099742741010097 0.2689900229875761
0.8144517565915405 12.990625886933152 8973.677301239077 17.896344270393726 0.2728115794583988
0.8383190358258341 12.994074575687156 7821.74839886378 18.727542057110288 0.2766958287979406
0.8624857451790522 12.998342349954221 6827.947069992522 19.594475320810425 0.2806414321675595
0.886946590982087 13.003270458668798 5967.481623680463 20.49932341533057 0.28465562968972846
0.9116921665480732 13.008761060226151 5221.997155337744 21.443876237828285 0.28874142630902583
0.936695936152808 13.014650191999568 4574.995220872489 22.42974632373245 0.2928997924344974
0.9619612633616429 13.020836691976358 4012.9647069866896 23.458697143346395 0.29713244467287564
0.9874717114322501 13.027226467813376 3524.213480045319 24.533270245929256 0.3014464893766599
1.0131990678805043 13.033688799289191 3098.6728841144613 25.655559344167546 0.3058447014538574
1.0391479402239032 13.04013937938671 2727.5284601088465 26.827215626040264 0.31032606473003443
1.065287923287091 13.046466785269368 2403.546439370061 28.051476605123835 0.31490041215440967
1.0916019571294475 13.052589819248622 2120.5497717380385 29.330574337043714 0.3195694286124787
1.118086175849579 13.058428504598007 1872.7159227443944 30.66690031250717 0.3243353259958614
1.1447031234468845 13.063890901805191 1655.998496825835 32.06412491149258 0.329208037274095
1.1714533566343803 13.068914266709124 1465.5863439229302 33.52407853591978 0.33418455153193743
1.1983002453087177 13.073390064889646 1298.6512005590678 35.05119177184094 0.33927778726411945
1.2252284008098453 13.077258112011604 1151.8816250766906 36.64781542533312 0.3444865633285025
1.2522107071105082 13.08043475719588 1022.7086872520448 38.318534899812704 0.34982251957713534
1.279240822933895 13.082887652927443 909.0103203050946 40.066041066523816 0.35528496224940037
1.306273805135033 13.084500611874388 808.7857975211979 41.895583073897406 0.36088715928974796
1.3332981110824256 13.085226356662401 720.4190174251081 43.81033085978179 0.3666293660332727
1.3602964835929459 13.085049414745466 642.3489305892851 45.815530412503435 0.3725224732332737
1.3872201741579624 13.08381469174093 573.2995111773953 47.916219836817085 0.3785748433092695
1.414056932206137 13.081533577058309 512.1822519804775 50.116804169722734 0.38479038476462174
1.4407870185094933 13.078144698942303 458.0915700108934 52.423143614804886 0.3911794407351744
1.4673668224475676 13.073563461932835 410.1147185194786 54.84131229943773 0.39775198203192824
1.4937697599091144 13.067730522427942 367.5348754623136 57.37747914870702 0.4045170345583055
1.5199749458557281 13.06062739159461 329.7209755005372 60.03824932235009 0.4114843314221287
1.545954257230223 13.052172896112918 296.1122301445571 62.83070346700991 0.41866437111673505
1.5716662925918405 13.042334191365255 266.19956878980804 65.76244072373584 0.4260684804448855
1.5970818178405268 13.031042162791714 239.5752646504596 68.84162587153376 0.43370888274058117
1.622175706691697 13.018271134671105 215.83556159469575 72.07704103509262 0.4415987720118675
1.6469243418582973 13.003985361244126 194.64552114404944 75.47814243845951 0.4497523937029527
1.6712786293122774 12.988108721445274 175.73412674247083 79.05512274724265 0.45818513285768997
1.6952022780416458 12.970597018279097 158.81577996286674 82.81777199810207 0.4669086530450491
1.7186974091927458 12.951459058133512 143.6927343183913 86.7786447685277 0.47594389676922366
1.7416966842547754 12.930600646684871 130.16005040624472 90.95003969453964 0.48530822635017834
1.764177730570569 12.90800406117554 118.02017187092522 95.34488417965935 0.49501905019778586
1.7861075381539102 12.883624657782137 107.13875137739063 99.97794038198897 0.5050983305533844
1.807454336593706 12.857431878979225 97.36745957192899 104.86510371725788 0.5155694284275207
1.8281857208802292 12.829392542211197 88.59242662213046 110.02230291501516 0.5264527575889033
1.8482679245868248 12.79947566792108 80.69705662579206 115.46805848865387 0.537775210170608
1.8676676511954404 12.767643544816215 73.5975784851805 121.22217688833537 0.5495647763068945
1.8863472729239816 12.733850010932647 67.2020157714946 127.30588627365466 0.5618507407922924
1.9042925154469728 12.698138007114165 61.43354002347777 133.74226501333183 0.5746648652127704
1.9214435433998882 12.660375840382029 56.23782021747956 140.55542474944255 0.5880381049411404
1.9377887383947057 12.620601315216575 51.541081799619654 147.7736415006483 0.6020111333826909
1.9533085101389671 12.578856006594894 47.29991916329513 155.42611061575192 0.6166223694989872
1.9679551757639597 12.535030819273278 43.46593311121659 163.5448657971822 0.6319141768175845
1.9816945652804452 12.489117221510886 39.99248419721072 172.1646884239921 0.6479318909749334
1.994506570816159 12.441123843670692 36.849146224616476 181.32436191439166 0.6647273183984272
2.0063701432229495 12.391053179167717 34.00079505086565 191.06551898440202 0.6823540449761423
2.0172598010063005 12.338912287455182 31.417928118296746 201.43396704207908 0.7008710075551738
2.027121243866964 12.284601396446408 29.07404205244405 212.4801515007458 0.7203430059974136
2.0359579401839323 12.228209943017815 26.945037615766722 224.2580402781502 0.7408359398718465
2.0437512254230956 12.169761741122318 25.010480029778122 236.8297578516154 0.7624307162614188
2.0504584198897 12.109183235538389 23.251403567101516 250.26014790060322 0.7852040346845457
2.056058287613736 12.04650176381974 21.65151743319523 264.6237240218402 0.8092494522578151
2.0605537583652227 11.981783696067554 20.19583490655613 280.0013083805652 0.8346645670067471
2.0639086885315696 11.915015659584357 18.870046678313386 296.48226130524876 0.8615561662962785
2.066110361124285 11.846210711439099 17.663823603216247 314.1651226170494 0.8900398765631308
2.067151315104833 11.775434646104161 16.56612800021788 333.1606437115771 0.920247307196224
