M[M_sun], R[km], Lambda[1], P_c[MeV/fm^3], rho_c[fm^-3]
0.24162668629717493 15.618656898711224 2160425.4255784233 3.5677272577965504 0.1711233750220791
0.2536368723151868 15.27745386786712 1723286.4347404742 3.7847016865966867 0.17388670324461145
0.2660258743141778 14.981591142241621 1383398.10157315 4.011153601363955 0.1766636656009238
0.2787935984040924 14.723972764872084 1116801.909946105 4.247342759459986 0.17945304351970368
0.2919404832246504 14.498896702638122 906337.8010330962 4.49389256252912 0.18226137081636076
0.30546769425341486 14.30172565907768 739033.4656767026 4.750950062254518 0.1850841862853441
0.31937575690812486 14.128660519393405 605416.6050528139 5.019211432718641 0.18792841415845088
0.33366590182593797 13.976483997224596 498069.4035494886 5.298881640158418 0.19079030452102147
0.348336619767654 13.842514012027126 411316.5541318009 5.590711117229562 0.19367659646124558
0.36338913141911894 13.724527744245584 340954.57169237145 5.894839499828529 0.1965818430549789
0.378833083014233 13.620510975762896 283575.912827584 6.212142034182345 0.19951396095975413
0.39465418378420125 13.52895428178878 236658.82314004304 6.542896983344218 0.20246950061660993
0.4108676132083181 13.448355804667166 198089.17977715083 6.887764794327566 0.2054514658446805
0.427464050987315 13.377517369923766 166291.6039348377 7.247468436873528 0.20846326372755883
0.44444682498604 13.315372867729412 139983.79107907653 7.622296654896458 0.2115009197208862
0.46181503887387115 13.260990742305074 118140.70322130466 8.013138588250783 0.2145696741010455
0.4795677358021732 13.213540468930102 99948.00941341904 8.420725459177834 0.21767161293359533
0.4977113604479896 13.172344990484342 84770.57126856776 8.845538365070002 0.22080479053260754
0.5162362135028132 13.13672657193148 72056.91037189012 9.288369686489398 0.22397147676729792
0.5351405150605122 13.106127687182878 61375.67413583008 9.750140278266503 0.22717513620756752
0.5544326718564928 13.080087661416266 52392.38456215921 10.23165791135285 0.23041711687522437
0.5740983684320845 13.058058204711804 44807.34236521248 10.733450648678618 0.23369484744490535
0.594144987307928 13.039730605692005 38397.44692290816 11.256648633871357 0.23701308514664024
0.6145636176900046 13.024669103229233 32686.93797155728 11.802241146957444 0.24037413414187925
0.6353491091584407 13.012590312940517 28349.53736068503 12.371204850167913 0.24377962317654828
0.6565004187964675 13.003115739237753 24420.21523503454 12.964306321993664 0.24722838831358937
0.6780207238391643 12.996061923852304 21072.659666588017 13.582715825208986 0.2507234748856495
0.6998913128102627 12.991125338137977 18211.305214835127 14.227702177909212 0.25426836016666243
0.7221084076283113 12.988028258508654 15764.42830644717 14.900452010027253 0.25786502293348657
0.7446789365103379 12.986650872654362 13664.33754568108 15.602096358653261 0.2615143906118334
0.7675814619337514 12.986747972662151 11862.50667757982 16.33369628859714 0.26521632425847264
0.7908077148894155 12.988110158938678 10313.03690948032 17.09696134229947 0.26897649798750695
0.8143653013108182 12.99060929216521 8978.433332880739 17.893342535202066 0.27279733643954873
0.8382284935885193 12.994055723391712 7826.152957171253 18.724333294126875 0.27668108619229037
0.8623914263678029 12.998318362725637 6831.549960887353 19.591017841766195 0.280625920639606
0.8868455847849493 13.003264420364934 5970.542979292426 20.495600596970323 0.2846393157224418
0.9115897942393443 13.008729823816566 5224.713858441528 21.43987031931284 0.28872427412600454
0.9365926843397794 13.014621281338535 4577.63246455072 22.425473983676085 0.2928820475662048
0.9618506680147885 13.020806527292361 3992.7401910265553 23.454104813263747 0.2971137938558958
0.9873568438589181 13.027198678201122 3526.1892261249172 24.528336333630637 0.3014268892853356
1.0130829723642232 13.033651413740351 3100.4675625002624 25.65030293671651 0.30582441596517695
1.0390267405080282 13.0401041430508 2729.2783917498386 26.821572521562395 0.31030474609746833
1.0651616993282615 13.04643504026182 2405.072749402122 28.045420417908062 0.3148780076844665
1.091472185811586 13.052567321391834 2121.8502766165448 29.324126516691972 0.3195462204181943
1.1179519084562317 13.058406510697774 1874.0955881320085 30.659983953028245 0.3243109280896306
1.1445644852575771 13.063861560402502 1657.0096627825953 32.05670760019364 0.32918238532621813
1.171310840837823 13.068887592019255 1466.5327670740223 33.51618393951693 0.33415794592809284
1.1981545324343066 13.07337096515854 1299.3929427667897 35.04272770360324 0.33924979888507145
1.225079751595499 13.077235507006153 1152.6329647057566 36.638806427462264 0.34445750169593403
1.2520594438663997 13.080419896351733 1023.401898850539 38.30887742888482 0.3497919268263639
1.2790855352466142 13.08287658342747 909.6765881763607 40.05576027602162 0.3552531569181768
1.3061148852793119 13.08448400821235 809.3799994191456 41.88463651260652 0.3608540661765689
1.333137065890655 13.085227154689848 720.9474681403208 43.798595935998776 0.36659448377093384
1.3601320313852119 13.085051713683548 642.784336758287 45.80303169171114 0.3724861286510326
1.3870512539401705 13.08383072151764 573.6931519707961 47.902903992803544 0.378536942118759
1.4138867217958135 13.081554218540777 512.5803887953581 50.10252536239075 0.38475037397292045
1.4406151037571182 13.078172090641376 458.4174470315968 52.4079244883213 0.3911376547159644
1.4671886962776906 13.07358580270172 410.42043809747236 54.825085543752515 0.397708302523942
1.4935940412297628 13.06777372775629 367.79654205616777 57.36017200542948 0.4044713341646553
1.5197977928700153 13.060677089331882 329.9808872130286 60.01978309732898 0.41143647286076634
1.5457755568770448 13.052235796265675 296.32801458886297 62.81099299431742 0.4186142063966806
1.571487081130312 13.042409736497325 266.3975307481048 65.74139377564643 0.42601584996026237
1.596901218160597 13.031126300002207 239.74478337716087 68.81914250843474 0.4336536142735711
1.6219947259811598 13.018368434871515 215.99365625111656 72.05301288851305 0.4415406796346234
1.646733463922002 13.004092458724026 194.79392006072604 75.45245191956741 0.44969127656733043
1.671098737889492 12.988233470469737 175.87028491310886 79.02764217219597 0.4581207738602823
1.6950288829398812 12.970750150301733 158.94525561823548 82.78850281828012 0.46684139255506396
1.7185183680835718 12.951613212041707 143.79973198284978 86.74730257189292 0.4758729221145
1.7415181767820662 12.930771675978104 130.2604079973255 90.91661142729991 0.4852338607600728
1.7640009875960798 12.90818994637325 118.10885862079675 95.30904827747197 0.4949404182266186
1.7859334977892458 12.883822392620914 107.21058363166843 99.93966565570926 0.5050157353545748
1.8072704006821083 12.857625431161003 97.44540285530728 104.82419195791852 0.5154825522208092
1.8280171919495183 12.829630982984815 88.65674103123736 109.97836512619583 0.5263606130846171
1.8480926710224581 12.799706997862687 80.7606199769909 115.42102582208925 0.537678056911211
1.8675053283214642 12.7679239520389 73.6577160093763 121.1717910463374 0.5494622091969378
1.8861957066656574 12.73417620934574 67.25606515206725 127.25186478036247 0.5617423200863
1.904128256684661 12.69842089044081 61.48924185353913 133.68435840139082 0.5745503238691295
1.9212921989466234 12.660704671264025 56.280024629844135 140.49338079047322 0.587917219714943
1.9376520170606593 12.620999294700361 51.57978263631389 147.70695061181382 0.6018828501399391
1.9531656120216843 12.579215902456307 47.34018011414821 155.35458460477142 0.6164868205483245
1.9678244234079258 12.535438595148497 43.49886370035621 163.4678474915423 0.6317699651211905
1.981570534082603 12.48955110248879 40.02298697016542 172.08192070082313 0.6477790694237376
1.994406127274813 12.441629688981147 36.87667235203664 181.23532075196175 0.6645651286864356
2.006260779858159 12.391539732500604 34.027806239578005 190.96962708876086 0.6821816589652978
2.0171476506212387 12.339390549699308 31.439519994417115 201.33058764967276 0.7006875193311888
2.0270290498788235 12.285142968370081 29.095246901765787 212.3685813757259 0.7201474229512225
2.0358877406287705 12.228816249360747 26.965272515927303 224.13777145908745 0.740628052354902
2.0436796515316846 12.170356871045854 25.029192811922933 236.6996700106333 0.7622084769849106
2.05038992405081 12.10978978880551 23.270095001638488 250.11957367314324 0.7849670583122921
2.056013431096137 12.047176705286375 21.66775836174796 264.47162403542137 0.8089963490435912
2.060506296310055 11.982451973416035 20.211719794092257 279.8365280379475 0.8343938071516303
2.063874575138433 11.915710976247002 18.883842000679177 296.3038208118026 0.8612670607237293
2.066092755955985 11.846948518693862 17.675769585085416 313.97129580325895 0.8897295979570524
2.0671453032062037 11.776201034275758 16.576142947916946 332.9501543712673 0.9199148560969745
