M[M_sun], R[km], Lambda[1], P_c[MeV/fm^3], rho_c[fm^-3]
0.24162668629717493 15.618656898711224 2160425.4255784233 3.5677272577965504 0.1711233750220791
0.25364362453826017 15.277284565341029 1723289.7471894727 3.7848128452902197 0.1738880887841016
0.26603924381297733 14.98127671102899 1382944.898691544 4.011387273920645 0.1766664893958673
0.2788137480721196 14.723532617582352 1116507.9508387793 4.247706846031514 0.17945726637526663
0.2919673654937381 14.498480583456253 905972.4393294997 4.494396611484919 0.18226698351846723
0.3055035205157039 14.30121189922548 738646.6773204652 4.751611181962087 0.18509132763995176
0.319418272858561 14.128167310352483 605127.586700557 5.0200344873105145 0.18793695366751145
0.3337170713928478 13.976002910206011 497722.5961470182 5.2998882907926195 0.19080043982257242
0.3483962758786272 13.842066542750505 411029.7104148844 5.591903871255257 0.1936881366845595
0.3634580869316 13.724034398921699 340673.9930884182 5.896245145026253 0.19659504517214216
0.3789114409822551 13.620031964329753 279401.5743533522 6.213777572032014 0.19952887509562733
0.3947428979359718 13.528482672584648 236430.10314519305 6.544760709761241 0.20248584297951613
0.4109665266670395 13.447906844449227 197890.23121963436 6.88989267635611 0.2054695877809666
0.42757394397411047 13.377081882137716 166091.280034214 7.249880431606224 0.20848321754184113
0.44456814907390246 13.314956642311135 139817.1936132908 7.624986090328621 0.2115223293562275
0.4619483217250737 13.260596070103723 117992.47076518556 8.0161523585121 0.21459298805054539
0.47971222963458204 13.213180418841779 99826.81925564345 8.424087052298416 0.21769688741444113
0.4978697276153418 13.171996464182273 84653.86839839043 8.849235381822197 0.22083155851350716
0.5164053906689835 13.136428135748652 71944.54933383646 9.292461934916686 0.22400028645134798
0.5353234197389592 13.105861818336999 61282.48127977789 9.754655489348947 0.2272060497326784
0.554629589997394 13.07983620811891 52307.65800684554 10.236625500431046 0.23045019908062236
0.5743101015128996 13.057858591054277 44735.256739521144 10.738849029341623 0.2337295067209709
0.5943658591398893 13.039540250541597 38330.07933362402 11.26255895933806 0.23705001296711123
0.6148015730837739 13.0245157543391 32906.40156771427 11.808698312585177 0.2404134044824388
0.635602478466807 13.012440746504126 28297.61818543176 12.37824592749436 0.24382131391786702
0.656773501041225 13.003040458795457 24374.465607265895 12.971898978601681 0.24727178482524542
0.6783043206327145 12.995988575724283 21031.26783192219 13.59096783488356 0.2507694198646719
0.7001910055874876 12.991057611894036 18175.332017147204 14.23665776063511 0.2543169446400278
0.7224239294410625 12.988001552064695 15732.83695167055 14.910158225925004 0.2579163433557237
0.7450107312900118 12.986654205947799 13636.61078738169 15.612508623497263 0.2615676112029877
0.7679302512322234 12.986745731542003 11837.333856919957 16.344955544676303 0.26527244882610834
0.7911727315988012 12.988132862766845 10290.560376017944 17.10912406356978 0.26903564118240153
0.8147469486631584 12.990661184932936 8958.203636472274 17.906468938362025 0.27285962028395994
0.8386274975119897 12.994133758473879 7808.872602852092 18.738365171725935 0.2767455554095696
0.8628071730645757 12.998392929714745 6815.877585230656 19.606137556320174 0.2806937532633047
0.8872807728982064 13.003334550332394 5956.49355544353 20.51188087438684 0.28471065842237786
0.91203881152429 13.008844909920027 5212.024937558473 21.45738886370579 0.28879928345995265
0.9370584463056698 13.014730711128296 4566.234228111361 22.44415784127058 0.292959649673677
0.962335412778863 13.020923460378286 4005.1916982926236 23.474188333860326 0.2971953590004339
0.987859060744624 13.027328224009754 3517.163210263557 24.549913988166978 0.301512607063415
1.0136001444970497 13.033786141611255 3092.4941720678326 25.67329123048835 0.30591313221813793
1.0395624074651622 13.04023555174817 2721.979426486947 26.84625233962554 0.31039798200602725
1.0657129894395874 13.046561729724518 2398.8598274889086 28.07190720982759 0.3149759938451167
1.0920427141688873 13.052688911129204 2116.3496189990874 29.352326446230176 0.3196477228496869
1.1185391566836655 13.058527856926442 1868.9917507761886 30.690233506597338 0.3244176353499677
1.1451689268065635 13.063985121797872 1652.4971984747917 32.089061120141714 0.32929401307781625
1.1719301787649483 13.068998700733857 1462.4896096257085 33.550712853979206 0.3342743119299108
1.1987850158050395 13.073461464311764 1295.7232367038596 35.07974789649676 0.33937221462677336
1.225729499077078 13.0773252256662 1149.3497076808023 36.678210520374265 0.34458461320004563
1.2527244324199043 13.080491834721107 1020.4135938613629 38.35111850253317 0.34992573728751786
1.279764158565832 13.082929288079235 906.9366116872234 40.100728272183865 0.3553922728754659
1.3068079545450646 13.084522997573664 806.9378630174988 41.93251719317963 0.3609988167278327
1.3338436068890192 13.085234777718515 718.7855263324597 43.8499257671107 0.3667470625748323
1.3608511657634514 13.085031549904212 640.7677109383122 45.85770318000112 0.37264510591241956
1.387780811244553 13.083776949333425 571.9587196351979 47.96115050215089 0.37870273048674385
1.4146363896997949 13.081489018185458 510.95269535691284 50.16498513787087 0.3849253931470253
1.4413587936411756 13.078040196354344 456.99512473743414 52.474498436409064 0.3913204418343106
1.4679519688361222 13.07344643922602 409.12190997852156 54.89606824297505 0.397899375184289
1.494362585683352 13.067582914236535 366.637214608348 57.43588188555425 0.40467124996066095
1.5205720138155427 13.060442774361242 328.92363480446693 60.10056457383299 0.4116458326647212
1.5465547961659747 13.051960985374322 295.3638235043428 62.897218815735805 0.41883365796744715
1.5722694934314887 13.042087900276805 265.529143046684 65.83346760749714 0.426246091911296
1.5976945958084527 13.030761895774667 238.98554411301947 68.91750178029686 0.4338954004399959
1.6227815157600407 13.017947609225212 215.29563259359898 72.15813193410365 0.441794823882985
1.647533545873745 13.003612307993157 194.15115775657972 75.56484544335582 0.4499586580968859
1.6718823530815892 12.987683976462945 175.27872433436679 79.14762079681114 0.4584013062018621
1.6958199035717856 12.970141665985105 158.4073378351026 82.91655671876467 0.46713566004542395
1.7192853395162788 12.95090314527828 143.3244291949208 86.8844284803883 0.47618344483001146
1.7422873564308101 12.930004679787523 129.81388793682322 91.06286644174212 0.4855592243326711
1.7647668608450202 12.907363325659533 117.70616849683118 95.4658401243676 0.4952844545486258
1.7866945674989054 12.882933778749686 106.84903501875567 100.10713082123786 0.505377117916515
1.8080333485788675 12.856686126002419 97.11125054344517 105.00319814545463 0.5158626722352538
1.8287460185018949 12.828559312932233 88.35670670328366 110.17057547606609 0.5267636437710446
1.8488264570523874 12.79860181658913 80.48269836168612 115.62682155784539 0.5381031598866344
1.868214475820262 12.766700669231895 73.40169426568339 121.39226309447741 0.5499110094929587
1.8868856810453765 12.732862525450981 67.02652532348425 127.48824989120742 0.5622167431176159
1.9048100373172367 12.697055983376506 61.27238253429291 133.9372804455816 0.5750498862277856
1.921955025620822 12.65924945490463 56.09111353257898 140.7648807936874 0.5884462049674374
1.9382701495792678 12.619371422504582 51.4066524549665 147.99879156287426 0.6024442207292966
1.9537699454604671 12.577539458634542 47.17516267680164 155.66759040896258 0.6170799978795894
1.9683896585049043 12.53362129049802 43.3512118695811 163.80481749043116 0.6324008005579796
1.982108404165013 12.487632258713845 39.89086832633679 172.44413763449694 0.6484478633877861
1.9949013745249906 12.439567639628487 36.75619596186522 181.62500088645814 0.6652749364546418
2.0067404548024874 12.389418900570007 33.912092634054424 191.38929853871218 0.6829361073640774
2.0175923433857728 12.337157719894948 31.337797127821826 201.7830390666307 0.701490575965637
2.0274321088271634 12.282784033734812 28.99929595522464 212.85624283978703 0.7210013065839598
2.036246536703815 12.226331350565562 26.877233907774215 224.6641670378814 0.7415379396445488
2.043996288548168 12.167750030320217 24.948827546580283 237.26814185100943 0.7631782241328116
2.050660750945507 12.107058411246959 23.194359313618044 250.73487494852097 0.7860043171805545
2.0562369457835503 12.044326412780574 21.598850810374465 265.1373921776556 0.8101042259125828
2.060690335665814 11.979489460933266 20.147172125442133 280.5576087111599 0.8355783118630136
2.0639956570733227 11.912875907997448 18.831609078685148 297.05605102040226 0.9467311014578063
