M[M_sun], R[km], Lambda[1], P_c[MeV/fm^3], rho_c[fm^-3]
0.24162668629717493 15.618656898711224 2160425.4255784233 3.5677272577965504 0.1711233750220791
0.253643660611631 15.277279450024468 1723287.2985741366 3.784812727028018 0.1738880873100203
0.26603926185535337 14.981262761424508 1383056.997517369 4.01138702531024 0.17666648639155727
0.27881404943477056 14.723536024548126 1094031.119143204 4.247706458662412 0.1794572618823688
0.29196729363399887 14.498467007611996 905939.0451609405 4.4943960751926335 0.18226697754672816
0.3055034319617231 14.301224438679855 738656.4948700324 4.751610478537486 0.18509132004162357
0.3194187587140523 14.128167218275605 605121.0770378385 5.0200336115724085 0.1879369445813906
0.3337166635325783 13.976009509219729 497708.68770573905 5.299887219685781 0.19080042903830385
0.3483962122848349 13.842067079642636 411030.03895877284 5.5919026021058365 0.19368812440518973
0.3634582341465083 13.724029621903723 340672.4902897956 5.896243649321776 0.19659503112416918
0.3789108029446307 13.620033935662212 283320.69174753106 6.213775831673042 0.19952885922564903
0.3947420635586628 13.528483465713196 236401.363390996 6.544758726555129 0.20248582558947772
0.4109664738545326 13.447907061812773 197888.28786052758 6.8898904120182225 0.20546956849691497
0.42757425353826817 13.377076381283935 166097.02012901628 7.2498778648892035 0.208483196308049
0.44456803976004877 13.314963512455138 139811.5985962832 7.624983228326997 0.2115223065728543
0.46194902303130325 13.260592425510545 117994.82774432833 8.016149151307147 0.21459296324022217
0.4797126941432148 13.213174435522653 99827.21821839365 8.424083474881987 0.21769686051727072
0.49786886549875914 13.172001992096478 84652.67227062931 8.84923144738507 0.2208315300265013
0.5164052083970027 13.136428389522798 71945.13833887552 9.292457579789309 0.22400025579097974
0.535323132579525 13.105866433209833 61283.83963852874 9.754650684003826 0.2272060168327421
0.5546281746308849 13.07984797856653 52306.34908024171 10.23662021354654 0.230450163872034
0.5743098569837164 13.057858953660244 44736.54304528599 10.738843283889382 0.2337294698333878
0.594364444832551 13.03956357200388 38333.547430710896 11.262552668917587 0.2370499736644503
0.6148014712573648 13.02451512727139 32628.4364075574 11.808691440037482 0.24041336268588223
0.635602309628234 13.012455061634217 28298.23700945135 12.378238433342284 0.24382126954443648
0.6567732807148814 13.003033984751058 24181.558385101474 12.971890897259462 0.24727173863560722
0.6783038837654108 12.995982047796 21030.868951733082 13.590959051598386 0.25076937096169316
0.7001906994168917 12.99107186329775 18175.70979870821 14.236648228314792 0.2543168929267249
0.7224236574710342 12.98800585263487 15732.5113349915 14.910147894451686 0.2579162887293298
0.745010460329738 12.986661666287059 13636.583183063345 15.612497540333521 0.26156755455320646
0.7679293730172432 12.986760298754202 11837.600068187554 16.344943559738745 0.26527238908420053
0.7911730670231097 12.988141975407867 10290.947974999084 17.10911111671166 0.26903557822621466
0.814745983311413 12.990663130141348 8957.826555153157 17.90645496544896 0.27285955398348655
0.838627046896159 12.994118810093667 7808.837986393315 18.738350234732028 0.2767454867818112
0.8628060139458154 12.99839984100577 6815.971229807628 19.60612146103664 0.28069368105391823
0.8872805782452592 13.003333493112496 5956.540693374512 20.511863543351616 0.2847105824750943
0.9120376865116822 13.008838782415726 5212.154428053444 21.457370214152665 0.28879920360796685
0.9370572117475126 13.01473147790162 4566.236912786009 22.444137950884517 0.29295956706033716
0.9623351679935915 13.020928044366563 4005.2706480606116 23.474166953043316 0.2971952721665832
0.9878578363677665 13.027326100572663 3517.2816508140204 24.549891016287308 0.3015125158070423
1.0135996744357174 13.03378642356698 3092.5052750447544 25.673266756463907 0.30591303776816414
1.039561537560816 13.040234289097736 2722.0038616191937 26.846226064272315 0.31039788274247415
1.0657118166335109 13.046562581177122 2398.8690766568257 28.071879010159083 0.3149758895222807
1.0920419803796357 13.05269501945224 2116.2823177922965 29.35229642218703 0.31964761478156645
1.1185384953599944 13.058530224648273 1869.0111144522818 30.690201299743595 0.3244175217382042
1.1451685219888912 13.063988695234823 1652.480192837889 32.089026835589245 0.32929389527947084
1.1719295761331678 13.068999380935953 1462.4999964731683 33.550676089598845 0.3342741880301584
1.1987852171798885 13.073453729158405 1295.7333937288831 35.07970847878082 0.3393720842830729
1.2257288260142383 13.07732808473681 1149.332551362598 36.678168563704254 0.34458447785432295
1.2527234717606206 13.080486587489204 1020.4057098267991 38.35107352420742 0.3499255948060421
1.2797635844116657 13.082936084027939 906.8956513967 40.10068038944577 0.35539212474227083
1.3068075497250824 13.0845161066675 806.9556520018654 41.93246620811483 0.3609986625922576
1.3338431818883105 13.085235123098624 718.7725418903442 43.849871108132675 0.3667469001000821
1.360850059678355 13.085036996335475 640.7758938694382 45.85764496163191 0.37264493662131026
1.387780057568638 13.083777840219689 571.9596823047707 47.96108847574041 0.3787025539395571
1.414635505386764 13.081492230744725 510.961767022644 50.16491862333131 0.3849252067659554
1.4413579210891123 13.07804044303089 456.9984425650466 52.47442753932348 0.39132024717747643
1.4679511751627292 13.07344682842933 409.1234684853053 54.89599264944259 0.3978991717000948
1.4943599323165824 13.06758439950493 366.6224481279727 57.435801256248915 0.404671037054872
1.52057210801329 13.060443112657591 328.9253740409878 60.100478541727206 0.41164560969696207
1.5465539983583565 13.051963332593981 295.36463567539664 62.89712698359707 0.4188334242473531
1.5722700589771628 13.042087180210828 265.53354217340296 65.83336954513216 0.4262458466942807
1.597693761853368 13.030762295992748 238.98659092689527 68.91739702151558 0.4338951429225942
1.6227813127069088 13.017946501852082 215.30014372826702 72.15801997336867 0.4417945531977188
1.6475332064079868 13.003613706606053 194.15263688439154 75.56472573208626 0.44995837330661254
1.671881544628259 12.987684503726141 175.28221260251698 79.14749336432358 0.4584010089033266
1.69581910995842 12.97014395809997 158.40513393722847 82.9164203218693 0.4671353466057556
1.7192844000888743 12.950904690878241 143.32457671700152 86.88428241701538 0.47618311406833636
1.7422863245352633 12.930003748535759 129.81496813177935 91.06271065109146 0.4855588777558179
1.764766386860055 12.907364192214297 117.71147356903728 95.4656731057982 0.4952840880725911
1.78669371534862 12.882934775066612 106.84876046351611 100.10695242932617 0.5053767329545089
1.8080332768592893 12.856686572442028 97.1112098261042 105.00300745523268 0.5158622673041677
1.828745200265135 12.828560246905504 88.3571743180238 110.17037147862222 0.5267632172666544
1.8488257392904872 12.798603617936378 80.4850794249761 115.62660231844555 0.538102707013688
1.8682129038316737 12.766703476407681 73.40170888954549 121.39202821425813 0.5499105313629062
1.886884796964342 12.732863009862156 67.02652253929787 127.48799805159113 0.5622162376775155
1.904810057416788 12.697056796132618 61.27514129940477 133.93701112935364 0.5750493545139298
1.921954211834226 12.659251205241183 56.090841118084874 140.76459152893375 0.5884456413696955
1.9382694429603426 12.619372481698246 51.405917864191466 147.99848061752627 0.6024436226104493
1.9537701179237745 12.577540733204724 47.175484479173605 155.66725690466848 0.6170793658555679
1.9683891896576378 12.533622742918533 43.351657544089996 163.80445940638012 0.6324001316539963
1.9821079155940973 12.487635116545167 39.88977551740467 172.44375167401572 0.6484471507539575
1.9949012040112253 12.439569601657212 36.75663933682547 181.62458565053868 0.665274180096657
2.00673997915628 12.389421404300002 33.91197355539675 191.38885133117657 0.6829353034137271
2.017591467009008 12.337159802816513 31.336338683201365 201.78255691329963 0.701489720191035
2.027430525913794 12.282787476092171 28.99948145859836 212.8557236719264 0.7210003983308485
2.0362464879261384 12.226333234763754 26.8772330886895 224.66360605075104 0.7415369699649388
2.04399591570362 12.167752793664077 24.94883424539278 237.2675363119032 0.7631771916330097
2.050660350120935 12.107061068887054 23.194174602275886 250.73421916855608 0.7860032116837655
2.056237492088099 12.044329270496332 21.598652463253238 265.13668258598307 0.8101030451108132
2.060690102997153 11.979492960454099 20.147274856045726 280.55684129628384 0.8355770531240027
2.0640002032745897 11.912611014383714 18.8255474754999 297.0840967861423 0.8625312476128786
2.0661677617217027 11.843724220077275 17.62333977482887 314.8188780951145 0.8910864104997067
2.0671665998554203 11.772845669786733 16.527568290551834 333.8706275364605 0.9213686699345196
