M[M_sun], R[km], Lambda[1], P_c[MeV/fm^3], rho_c[fm^-3]
0.24162668629717493 15.618656898711224 2160425.4255784233 3.5677272577965504 0.1711233750220791
0.25364464211937304 15.27727208856912 1723241.6030592236 3.7848318572990647 0.17388832575962015
0.26604044231614477 14.981251871413974 1382982.4131500847 4.011427241043062 0.1766669723749547
0.27881747479833435 14.723457574209327 1116450.4521365461 4.247769120505356 0.17945798866531756
0.29197215663333287 14.498369383980396 905856.1932457625 4.494482827530561 0.18226794355414516
0.3055077454002407 14.301192625074846 738576.7783038403 4.751724267117254 0.1850925491754538
0.31942548460160974 14.128103500210246 605056.5783334562 5.020175274681971 0.18793841439082926
0.333722922354122 13.975930433970763 497656.42521587963 5.300060487042863 0.19080217355308712
0.3484065024343375 13.841981226749438 410978.02319122874 5.592107906410603 0.1936901107808156
0.363470088112021 13.723938824391569 340633.7822643299 5.896485603153215 0.19659730360575695
0.3789248112818341 13.619954442624508 283284.6632403531 6.214057363140541 0.1995314264536467
0.39475768372941344 13.528414454063364 236389.06644953066 6.545079543450947 0.20248863872025166
0.41098360194714184 13.447826369801565 197844.06816682604 6.890256707856739 0.20547268802598587
0.4275921109946158 13.377025510383122 166062.68642249686 7.250293077087234 0.20848663125215355
0.44458878876815683 13.314882879958741 139786.97235674204 7.625446209368004 0.21152599219963655
0.4619713260483029 13.2605323262731 117969.07698714487 8.016667976893038 0.21459697677558148
0.47973696939288535 13.213127698880117 99801.55234421908 8.424662190900513 0.21770121165269987
0.49789508440224983 13.171959564325729 84632.11222773112 8.849867920092525 0.22083613836084715
0.5164348005882443 13.136372252578063 71929.60541994631 9.293162109563287 0.22400521572451085
0.535354673222319 13.105819548533672 61267.86942136071 9.755428047932925 0.22721133907768343
0.5546624415289415 13.079797902811194 52298.02032485214 10.237475479003908 0.2304558596063399
0.5743464327102513 13.05783230442978 44723.76258590033 10.739772734784916 0.23373543719604498
0.5944045270668998 13.039503672797759 38322.01530895499 11.263570283221435 0.23705633173703577
0.6148428401611834 13.024493762903417 32896.6269253956 11.809803229574218 0.24042012422124548
0.6356482469606676 13.012420375973507 28287.847059799653 12.379450785009418 0.24382844796861766
0.6568199777638595 13.003005087151985 24366.671941460827 12.97319824373004 0.2472792108919304
0.6783531508916567 12.995983245687633 21024.626467870952 13.59237995800467 0.25077728218787976
0.7002422127748545 12.991062972477508 18169.298445419005 14.238190313642344 0.2543252588148883
0.7224778499695591 12.987997870718141 15726.27971045216 14.911819267233646 0.25792512590725675
0.7450672091227424 12.98663921838661 13631.587405861883 15.614290522148309 0.26157671908691177
0.7679896330360535 12.986747918491165 11833.957100889738 16.346882432011682 0.2652820538761952
0.791236278396404 12.988142572020577 10287.06685792668 17.1112056106552 0.2690457630410069
0.8148100891312657 12.990678441695335 8954.416481219769 17.90871545746034 0.27287027985644763
0.8386947551737967 12.994141053817394 7806.246709613206 18.740766698485693 0.2767565891824474
0.8628778722982577 12.998406421520361 6812.744321421601 19.60872531736843 0.2807053629151128
0.8873606130936815 13.003363208549517 5954.244602639966 20.514667325092507 0.2847228690814161
0.9121166840823733 13.008860050148796 5210.119879729236 21.46038731237464 0.2888121219488409
0.9371390571446253 13.014749177835212 4564.322453422287 22.447355797231662 0.2929729321620993
0.9624235501432645 13.020962568747358 4003.631825021277 23.47762593041988 0.2972093201014717
0.9879455067310678 13.027347197408428 3515.7345486957847 24.553607406455566 0.30152727926092754
1.0136893697332976 13.033797877358513 3091.376368786468 25.67722617348702 0.305928317920997
1.039654129931963 13.040257906979033 2720.748362135349 26.850476914302387 0.3104139416884391
1.0658070149650671 13.046584589751692 2397.6625615441367 28.076441192082736 0.31499276701700507
1.0921403965633025 13.05271611338958 2115.1314851437887 29.357153766466368 0.31966509823854744
1.1186385500597196 13.058554804878453 1867.9547625251012 30.69541179990617 0.32443590211515966
1.1452726576535204 13.064009760861719 1651.708750117854 32.09457348525447 0.32931295302139757
1.1720366609546624 13.069012083443912 1461.68813122837 33.556623952261724 0.33429423294058264
1.1988937013495684 13.073475687860576 1295.0719203911322 35.086085628090544 0.3393931717869911
1.2258413308832905 13.077335821008555 1148.773164541722 36.684956493217285 0.3446063746641831
1.2528382504451927 13.080500364698388 1019.8712472824964 38.35831439838335 0.34994843534297415
1.2798806867857155 13.082944142985234 906.4284467177157 40.108427111770375 0.35541609051313044
1.3069258417488858 13.084520808018704 806.5739422153031 41.94071486473183 0.36102359953087676
1.333964623121731 13.085238600891822 718.414118237767 43.858714182970694 0.3667731862918022
1.3609739782844965 13.085033612804816 640.4272632435943 45.8670639250198 0.3726723256873728
1.3879055547311419 13.083770242185473 571.661208107921 47.971123560022654 0.37873111702882006
1.4147570316614535 13.081458611637846 510.69097580510135 50.17567986984189 0.38495536096459193
1.4414873717829304 13.078025468009487 456.7508586533492 52.485897864411854 0.39135174039260967
1.4680815280401984 13.073424451564218 408.8938183219735 54.90822284397798 0.39793209318423156
1.4944922501430506 13.067554321260552 366.4326344568335 57.44884622530369 0.4047054829603226
1.5207048927883424 13.060403480579234 328.74785022351165 60.11439767294057 0.41168168364247737
1.5466884558977043 13.05191302863028 295.2066677832168 62.911984552295245 0.418871237940919
1.5724047362657279 13.042029378405251 265.3908222169091 65.84923516029887 0.4262855206180971
1.597818824070881 13.030693068912235 238.8454184215124 68.9343461172036 0.43393680708697024
1.6229165222075255 13.017869903796742 215.16624781551837 72.17613435070885 0.4418383479714232
1.647668840930553 13.003528540051313 194.04326432044272 75.58409415768831 0.4500044503321208
1.672016929611479 12.987595352801453 175.16868461003543 79.16811109305952 0.4584491098285854
1.6959552990410602 12.970036169608276 158.3204782264694 82.93848851827032 0.46718605925681217
1.7194347644603518 12.950820322053467 143.23741987387368 86.90791468575628 0.47623662952973705
1.7424130118483279 12.92986469749667 129.7404006528779 91.08791682879674 0.4856149522231516
1.7648987524158979 12.907223076228654 117.64256541769063 95.49269602039797 0.4953433823811466
1.7868253693969605 12.882781216070622 106.79559344711798 100.13581561068139 0.5054390184476798
1.8081632625107404 12.856520223177153 97.05718018779042 105.03386057792288 0.515927783974871
1.8288716790016888 12.828379139789662 88.30458001065196 110.20337780165096 0.5268322247081694
1.8489510084839937 12.798404851060923 80.44070660560305 115.66207492087177 0.5381759811696465
1.8683257653106586 12.76646260616314 73.36471805953309 121.4300316376266 0.5499878924061835
1.8870032546706186 12.732637885741722 66.98950502932023 127.52868746947316 0.5622978099075032
1.9049255020026798 12.69681568166328 61.23842154727118 133.9805866313324 0.5751353860849091
1.9220648606482003 12.658992918328709 56.0565696616428 140.8113949298792 0.5885368321931711
1.9383771679503934 12.619098276388698 51.375030057615305 148.04879220719664 0.6025403994563379
1.9538724273777235 12.577248793904895 47.151328047284785 155.72121881639325 0.6171816290799499
1.9684864009509386 12.533310343402869 43.32676080980834 163.86239865693025 0.6325083626555328
1.9821999382777462 12.487304883224544 39.86847605943611 172.50620175836193 0.6485624580065519
1.994986189007457 12.439222348393205 36.733663689872444 181.69177296114856 0.6653965627145376
2.006821030003623 12.389054649163521 33.89191962370873 191.4612121863982 0.683065387390997
2.0176667266288244 12.336772287008491 31.31966121196492 201.86057262398543 0.701628190381887
2.0275013233784045 12.282381687985076 28.983846720126014 212.93972901373925 0.7211473606504701
2.0363081891480794 12.225906328292066 26.862018759993646 224.7543785933346 0.7416938724657822
2.044049565736107 12.167305967608598 24.93550934655507 237.36551828880454 0.7633442599044041
2.0507061738929444 12.106590773654883 23.181297423279933 250.84013882019997 0.7861814660992553
2.056277436568004 12.04383650281009 21.588413185901466 265.25150265358366 0.8102941123742059
2.060720525548271 11.978979878911257 20.13665303455472 280.68101854602287 0.8357807327155764
2.064022979720181 11.91207834480225 18.816463983934913 297.2188201086507 0.8627495235352173
2.066180789004512 11.843167956705845 17.614286997313187 314.9652293586064 0.8913206900874792
2.0671703532789123 11.772267093699117 16.519856597485227 334.029572032316 0.9216197100693266
