M[M_sun], R[km], Lambda[1], P_c[MeV/fm^3], rho_c[fm^-3]
0.24162668629717493 15.618656898711224 2160425.4255784233 3.5677272577965504 0.1711233750220791
0.2536441394297013 15.277273323353034 1723252.9701238412 3.784821875548446 0.17388820134191404
0.2660400347803402 14.98124253103921 1383048.1805868677 4.011406257330743 0.1766667187991751
0.2788157362372618 14.723473485189817 1116410.307724141 4.247736424836983 0.17945760944483577
0.2919699423266962 14.498400383396818 905817.5975533886 4.49443756186143 0.18226743951041377
0.3055058108176099 14.301208003633816 738643.0571354593 4.751664894369995 0.18509190783646884
0.31942157719059555 14.12814193323669 605106.7239773442 5.020101357413346 0.18793764747063782
0.33371966909129497 13.975977026949995 497687.29681154445 5.299970079100708 0.19080126329512354
0.3484011360744404 13.84202650667732 411006.2275327316 5.592000781977959 0.19368907432246088
0.36346221880081964 13.724010426712196 340635.42263938417 5.896359355399352 0.19659611786013578
0.37891709598049444 13.62000009227497 283300.73564693535 6.213910464163108 0.19953008691185037
0.3947494896923016 13.528459421251773 236413.5925937981 6.544912145678421 0.20248717086792992
0.41097597789037477 13.44787333605668 197866.95806711592 6.890065579517515 0.20547106029684511
0.4275832614953017 13.377043488727013 166075.3107806744 7.250076424509781 0.20848483894090358
0.4445777147350582 13.314947656037916 139803.5469759272 7.6252046312742445 0.21152406908267604
0.4619592051028996 13.260569465129569 117980.93021673565 8.016397259367126 0.21459488255665285
0.4797245411167596 13.213148268177667 99813.10662685566 8.424360222754883 0.21769894127438846
0.4978818054407959 13.172007056011502 84643.1503304077 8.84953581466181 0.22083373377563104
0.5164194307855315 13.136410499105938 71938.71518452847 9.292794492064203 0.22400262767439902
0.53533867723999 13.105843624792731 61276.12880497742 9.755022425616993 0.22720856197260014
0.5546438298639913 13.079812199165655 52298.849113849414 10.237029207643593 0.23045288761317123
0.5743277777799605 13.057850113396652 44730.33289893383 10.739287753393743 0.2337323234652852
0.5943843387266707 13.03951840765177 38328.451091949915 11.263039297978894 0.23705301413163152
0.6148212889092383 13.024501109998997 32901.57123099592 11.809223103409485 0.24041659608624477
0.6356248546241478 13.012437028332958 28060.786707571748 12.37881818512659 0.24382470229777067
0.6567950442921231 13.003021742022842 24370.71581495763 12.972516075145275 0.24727531189603627
0.6783284065016663 12.995968428045359 21028.199450089618 13.59163853320522 0.25077315413323603
0.7002157070734276 12.991063139101172 18172.668892060523 14.237385656888199 0.2543208935127258
0.7224500764451856 12.987990536994726 15729.602871232482 14.910947147321606 0.25792051468053373
0.7450371563502913 12.98664668774894 13634.014085505372 15.61335494571141 0.26157193704075876
0.7679580714976558 12.986762016084828 11836.380946880896 16.345870728607213 0.2652770107884679
0.7912023296377048 12.988144052282115 10288.88856097766 17.11011270230748 0.2690404485978018
0.8147785478810647 12.99065219450684 8956.55275348737 17.907535929511646 0.27286468308067136
0.8386590680398256 12.99414007438663 7807.369334506986 18.73950578277673 0.27675079592718
0.8628396905399681 12.998398530338216 6814.554171932151 19.607366617864972 0.2806992672873277
0.8873202145979661 13.003357923316969 5955.251381169454 20.51320430182473 0.2847164578866114
0.9120762307216927 13.008851678554349 5211.060818384617 21.45881297750652 0.28880538110284254
0.9370968795044647 13.014733242008736 4565.307088779807 22.445676709133437 0.2929659581860671
0.9623799489780207 13.020947289795073 4004.6161403755104 23.475821016293402 0.2972019898089119
0.9879009145944009 13.027328632370535 3516.605899607155 24.551668169978004 0.301519575595001
1.01364288119915 13.033791290582208 3091.8537282022326 25.675160121530517 0.30592034462859774
1.0396066542245472 13.040247154939436 2721.421906005952 26.84825878718019 0.3104055620035886
1.0657569811354992 13.04657073310744 2398.341182968039 28.074060605889528 0.31498396019351815
1.0920888847405774 13.052700829475123 2115.8010533685915 29.35461915885864 0.3196559752074166
1.1185876994021635 13.05853267014652 1868.6198238182217 30.692692908039515 0.32442631104792025
1.145217480928262 13.06399649151357 1652.1239678958702 32.09167918351556 0.3293030084856999
1.1719817113607995 13.0690074478146 1462.0457235836056 33.55352028832624 0.3342837732731189
1.1988368201943824 13.073460839662383 1295.415979828317 35.08275795204958 0.33938216806445864
1.2257819829898113 13.077335860580376 1149.0731633906942 36.681414462304915 0.34459494862075435
1.2527776611525678 13.08049197094037 1020.1699354195954 38.35454363706177 0.3499365615770624
1.2798199181145173 13.082939730789763 906.7057935591126 40.104384758061286 0.35540358482121764
1.30686435172139 13.084525490730261 806.7359122159746 41.936410588424614 0.36101058705150507
1.333900473725554 13.085235540990046 718.5903806271849 43.85409972217055 0.3667594697278808
1.3609086294117116 13.085032115796723 640.6301306885034 45.86214894920702 0.3726580336053582
1.3878399218729605 13.083775591844457 571.8052119656187 47.9658870742547 0.37871621229995006
1.414696774518922 13.081484930725324 510.82898355708596 50.17006444963884 0.38493962593835085
1.4414191398974905 13.078033669423984 456.88001148926037 52.47991242473703 0.3913353066178131
1.4680147235934953 13.073433171658657 409.0157090994689 54.90184087981894 0.39791491408448665
1.4944230967129366 13.067569978986873 366.52299115010265 57.44203908460154 0.4046875083584642
1.5206348078261 13.060426660656562 328.8432653856375 60.107134364347765 0.41166285946484577
1.5466185247022164 13.051937899069463 295.288738655142 62.904231533751414 0.41885150589233267
1.5723344280988356 13.042058438399364 265.46253170075414 65.8409561062858 0.42626481782436765
1.5977588766089885 13.030732416530926 238.91660904998244 68.92550166228507 0.4339150657014518
1.6228453683395763 13.017912927191512 215.23827964048849 72.16668180666339 0.4418154947416584
1.647597575525553 13.003572271403602 194.08931608385114 75.57398720121057 0.4499804061221781
1.6719467694378538 12.987639585775836 175.23382358099101 79.15735220076641 0.4584240094559553
1.6958832509071857 12.97009411079308 158.36042389344485 82.92697271083483 0.4671595959648649
1.7193640828132397 12.950881988863154 143.27921057645946 86.89558267752692 0.47620870359856105
1.7423470594876815 12.9299426560941 129.78382763774 91.07476348686791 0.4855856908789311
1.7648299102650256 12.907295918692157 117.67935912265325 95.4785946219635 0.4953124407642921
1.7867567962198045 12.882859935160827 106.8231487031679 100.12075387688296 0.5054065158795775
1.808094518246129 12.856607115547241 97.08335042463476 105.01776039924546 0.5158935952117023
1.8288053454726003 12.828473509926706 88.3317373252318 110.18615397911901 0.5267962142769256
1.848885140971932 12.7985107670328 80.46476692909265 115.64356406826445 0.538137744135764
1.8682626355805076 12.766572287552593 73.38879859317817 121.41020007337463 0.549947522608824
1.8869423438353872 12.7327548516212 67.00841569459556 127.50748204005555 0.5622553418868981
1.9048644476371408 12.696942690909616 61.25594907743018 133.9578472637617 0.5750904915128136
1.9220074857024119 12.659126078013204 56.075152464179716 140.78697106628096 0.5884892452189557
1.938320888552499 12.619242773268471 51.39110555706441 148.02253757155236 0.6024898973584265
1.9538190745102217 12.577399584782311 47.161333542874694 155.69305923417508 0.6171282638528325
1.968436559349861 12.533473402617377 43.34346457158201 163.83216346605187 0.6324518830677
1.9821518920708736 12.487476217852821 39.87978894072227 172.47361253769148 0.6485022855738156
1.9949419810702584 12.4394028424494 36.745388331431265 181.6567115623362 0.6653326978904471
2.006778801333321 12.389245739199847 33.90383360693305 191.42345090287506 0.682997503478729
2.017626955105131 12.33697516487522 31.328761713451037 201.81986026741131 0.7015559299649107
2.027464182001996 12.282592108797726 28.99063085401786 212.89589087191757 0.7210706684441058
2.0362766296107084 12.226130094001057 26.8702368604914 224.7070088603841 0.7416119927546638
2.0440216147113435 12.1675391764492 24.942500695911434 237.31438617014723 0.763257074945017
2.0506827382990758 12.106836574159923 23.18825062650731 250.78487486062292 0.7860884779048036
2.0562553057801503 12.044094513597502 21.593409733941396 265.1915831879353 0.8101944029021195
2.0607047144565414 11.97924741155646 20.141806858896636 280.61621580290574 0.8356744411341579
2.064011493045365 11.912355872108416 18.82128171147037 297.1485136059596 0.8626356144032601
2.0661745836703593 11.843457919066962 17.61883249489646 314.8888544687541 0.8911984289106104
2.0671684195664066 11.772571443485715 16.523392011109063 333.9466249710789 0.9214887018118672
