M[M_sun], R[km], Lambda[1], P_c[MeV/fm^3], rho_c[fm^-3]
0.24162668629717493 15.618656898711224 2160425.4255784233 3.5677272577965504 0.1711233750220791
0.2536441206142422 15.27726849859225 1723225.2127541497 3.7848206607543284 0.17388818620009142
0.26603995575722705 14.981260059055053 1383109.6854435466 4.0114037035866374 0.17666668793868467
0.27881507461250643 14.723514808981937 1116486.845580076 4.247732445741213 0.17945756329332122
0.2919695204701503 14.49841589682915 905824.2834386355 4.49443205299478 0.1822673781679051
0.3055046943897325 14.301231157612273 738625.6912461098 4.751657668675589 0.1850918297851788
0.3194215591860378 14.128137866978237 605113.1094216057 5.020092361660124 0.1879375541362261
0.33371904742122277 13.975960353178872 497675.9187574339 5.299959076449189 0.19080115251667942
0.34840047916958344 13.842030997622553 411008.1201078545 5.591987744952343 0.19368894818565166
0.36346465875624945 13.723953586157972 340644.2789387893 5.896343991098059 0.19659597355536662
0.3789161661425688 13.620013116726465 283312.3480087137 6.213892586650013 0.19952992389045687
0.39474871380468557 13.528461252746666 236426.98857415564 6.544891773510115 0.20248699223153532
0.4109736139371373 13.447880615196262 197878.65350256994 6.890042319402376 0.20547086220394387
0.42758145884275867 13.37706305849832 166081.5025706731 7.250050058170709 0.20848462081893754
0.4445764911972426 13.31492760140902 139806.24526526072 7.625175231580613 0.21152383504221078
0.461957729751106 13.260578205678282 117982.8203264491 8.016364313507891 0.2145946276937961
0.47972268966240195 13.213150884165213 98739.70758459091 8.424323473815148 0.21769866497373572
0.49788001552463446 13.171990911740837 84644.96155669872 8.849495398136913 0.22083344114272213
0.5164177210171855 13.136405337405687 71938.34121536961 9.292749753875858 0.22400231271476398
0.535335059778761 13.105854373286087 61275.47020495645 9.754973062419225 0.22720822400601876
0.5546451360998443 13.079806491816235 52301.58109205457 10.236974897657458 0.23045252592984997
0.5743252569198238 13.057838487610107 44730.210891938026 10.739228732594107 0.23373194453346918
0.5943834331373957 13.039507806520472 38329.192321118695 11.262974678760227 0.23705261038958392
0.6148188321174691 13.024501498123962 32902.47812110644 11.80915250402049 0.2404161667241672
0.6356220032083819 13.012438100667167 28292.408702002536 12.378741199998869 0.2438242464631169
0.6567928577192392 13.003027626306208 24370.776251883926 12.972433057807491 0.24727483740297634
0.6783248625399644 12.995983926201113 21028.27910173338 13.591548304767672 0.2507726517654694
0.7002118761290592 12.991060628370555 18172.683570489255 14.237287733545317 0.2543203622738115
0.7224466777189691 12.987990202520198 15730.246312570867 14.91084101418184 0.25791995351461655
0.745033739633975 12.986642945287539 13633.931339930205 15.613241090357793 0.2615713550877143
0.7679544774607233 12.98674852183116 11836.47284743951 16.345747609166843 0.265276397068937
0.7911983762401906 12.988145983121848 10289.176333827898 17.109979700849408 0.26903980185674925
0.8147736859931263 12.990666524645645 8956.724963902503 17.90739238713591 0.27286400198236227
0.8386551079613 12.994134292785018 7807.619067718497 18.7393523361576 0.27675009091936054
0.8628362282620304 12.998405181942466 6814.95709548173 19.60720127177992 0.28069852548372237
0.8873156023387393 13.003353396441295 5955.641426406685 20.51302626044142 0.28471567768166395
0.9120713413325549 13.008842358341868 5211.285604787765 21.4586213904949 0.2888045607827399
0.937091081314934 13.014744586061267 4565.354686664656 22.445472374585382 0.2929651094966849
0.962370123342707 13.020948538282331 4004.605030331246 23.47560136989991 0.2972010977596446
0.9878941989734866 13.027329646424798 3516.6369058171013 24.551432177851936 0.3015186381103148
1.0136367223197236 13.033794767503872 3091.9388616649276 25.674908697178754 0.30591937433360267
1.0396007719454017 13.040245726265361 2721.4814021665593 26.84798885682288 0.31040454225530495
1.0657512417593917 13.046567293230213 2398.393230776095 28.073770905954834 0.31498288846748856
1.092082658668259 13.05269864406887 2115.859721463944 29.35431071611028 0.31965486500290735
1.1185804187216013 13.058535920921697 1868.6761531240209 30.692362039906826 0.32442514388914245
1.1452115777029657 13.063991052816489 1652.1714931396284 32.09132696990035 0.3293017983144097
1.1719742149101513 13.06900615711864 1462.083018220385 33.55314259772131 0.33428250041683877
1.1988312377102701 13.073461566112561 1295.568998433745 35.08235300179245 0.33938082900374056
1.2257750174087556 13.077328008302736 1149.0884489374773 36.68098342754902 0.3445935581693546
1.252771075969621 13.080497131204613 1020.2078974202029 38.35408476852483 0.3499351166440297
1.2798128393625858 13.08293464585601 906.7379393206667 40.103892840117645 0.35540206299143917
1.3068570108394613 13.08452130708708 806.7889929966224 41.935886797744416 0.36100900355292487
1.3338936788864013 13.085232963876186 718.6314048005536 43.85353818607751 0.3667578005522072
1.3609003550415124 13.08503406187387 640.6451980661152 45.86155084432628 0.37265629439761144
1.387831880886357 13.083773714431223 571.8249133254579 47.96524984585703 0.3787143985422285
1.4146887558728267 13.081485024332189 510.8319398472346 50.16938111017404 0.3849377111458649
1.4414119827378904 13.078033814989011 456.8849689573708 52.47918405900669 0.3913333067984126
1.4680062560436524 13.073436330430031 409.0280471266362 54.90106426263921 0.39791282357071034
1.4944147004166506 13.067571393209636 366.5533418333381 57.44121072954125 0.4046853210447215
1.5206262832444022 13.060427487787438 328.8502306079006 60.10625050033816 0.4116605687714371
1.5466100413622685 13.051942206761908 295.2994721714821 62.903288079361715 0.418849104725903
1.5723263683461135 13.04206334080628 265.47486126711544 65.83994864140486 0.4262622985344117
1.5977500126893973 13.030736012531728 238.9296149194014 68.92442539691713 0.43391242003244224
1.622836728159832 13.017916261992399 215.24581563995076 72.16553154651257 0.4418127137803225
1.6475893616094819 13.003577363630292 194.09967388404695 75.5727573096822 0.44997748023937845
1.671937773998654 12.987646584966305 175.2370614772553 79.15604297916228 0.4584209550569313
1.6958749447607748 12.97009901747538 158.3661672526229 82.92557138541663 0.4671563757231352
1.7193556471953382 12.950890181528697 143.28324724518 86.89408203452001 0.4762053053804808
1.7423411238663746 12.929949565113416 129.77978857468216 91.07316290164574 0.485582130165966
1.7648207181035234 12.90730460527737 117.68252718165529 95.47687867523548 0.4953086755940186
1.786748278817355 12.882868172072724 106.8228450404584 100.11892107451703 0.5054025607715857
1.8080865327548046 12.856617890997132 97.08817861715339 105.01580123707892 0.5158894349267351
1.8287972816537208 12.828485012893072 88.33365456235454 110.18405809040108 0.526791832331139
1.848876759770694 12.798522550019234 80.46622459296657 115.64131157289412 0.5381330912576052
1.8682636100182834 12.766616680132731 73.38468337716392 121.40778687303231 0.5499426102172663
1.8869337354165372 12.73276961628778 67.01082279898885 127.50489458586725 0.5622501488869878
1.9048570606006938 12.696957530679098 61.25795018050065 133.95508024139835 0.5750850285515156
1.922000479224461 12.659143465446105 56.077120418838355 140.7839990754526 0.5884834546506311
1.938315022001704 12.619270759371547 51.39406436255497 148.0193428142757 0.6024837520838557
1.9538123851157836 12.57741834308491 47.16306674174746 155.68963268516217 0.6171217701994506
1.9684298411117762 12.533491583737273 43.3395158409578 163.8284843602352 0.6324450104674589
1.9821460211619024 12.487497348077804 39.8819632924535 172.4696469990375 0.648494963640274
1.9949367039868302 12.439425180649145 36.74739516806435 181.652445215258 0.6653249266800879
2.0067737003519737 12.389269103053017 33.90478647664115 191.41885604189397 0.6829892432420361
2.0176223492617265 12.336999117763922 31.328994395900082 201.8149063301284 0.7015471372148991
2.027461746421202 12.282616776167709 28.99245494870534 212.89055660061354 0.7210613364555987
2.036272297584099 12.226157179284828 26.871376777771836 224.7012448808763 0.7416020295788638
2.044018099666625 12.167567015860755 24.94307238512659 237.3081644013786 0.7632464662577251
2.0506794831957147 12.10686629529819 23.188632927421903 250.778150351252 0.7860771631168341
2.05625261158992 12.04412601448827 21.593449401500788 265.18429222488726 0.8101822703160115
2.0607030274434592 11.97927973537034 20.143163596668394 280.6083306728211 0.8356615076855712
2.0640106216360765 11.912387328164995 18.82205156415455 297.13995881688646 0.8626217541121051
2.0661746211164234 11.843492717674081 17.620323621045905 314.879561324442 0.8911835524143875
2.0671685808660456 11.77260772207038 16.545834406552057 333.9365321775999 0.9214727610507737
