M[M_sun], R[km], Lambda[1], P_c[MeV/fm^3], rho_c[fm^-3]
0.24162668629717493 15.618656898711224 2160425.4255784233 3.5677272577965504 0.1711233750220791
0.25364598633383234 15.277224356582575 1723095.8110480963 3.7848587764422947 0.1738886612937543
0.2660438297638426 14.981200367381577 1382966.9478058235 4.011483831062761 0.17666765623194564
0.27882170673026363 14.723387166222027 1116347.9295011705 4.247857296555961 0.1794590113746261
0.2919789734241797 14.498263999728268 905765.2716763155 4.494604904066039 0.1822693029047002
0.3055164861057702 14.30108798076497 738533.0134131276 4.751884389949462 0.18509427880764068
0.31943655388368597 14.127952832293953 604965.0824244149 5.020374623993497 0.1879404827168781
0.3337372393543325 13.975751957274952 497562.8627733608 5.3003043120294375 0.19080462846612312
0.3484209822273457 13.841858965351593 410902.1712312331 5.592396816538269 0.19369290606577722
0.3634876510893157 13.72378799034813 340560.99820788036 5.896826090222265 0.19660050153236422
0.3789431590592939 13.61984252443582 279295.77795877605 6.214453548522029 0.1995350391872876
0.39477853271358143 13.528301469420573 236322.4282670015 6.545531016495113 0.20249259752893878
0.4110075051496977 13.447711688083773 197796.43577493288 6.890772185571675 0.20547707805051807
0.42761946730350664 13.37690822664657 166023.95602071803 7.250877397839775 0.20849146518799075
0.44461779559352693 13.314793667334197 139748.72433259792 7.626097758794008 0.21153117895201246
0.4620016621704182 13.260428603595386 117923.51525640773 8.017398121341607 0.2146026250331876
0.47977256693719134 13.21303722145239 99767.40681583833 8.425476625347441 0.21770733506118228
0.49793287489834215 13.17188176459707 84604.66969551679 8.850763642116206 0.22084262377101116
0.5164762872291803 13.136305005667444 71906.80831484568 9.294153617064039 0.22401219599912944
0.5353990526593863 13.105767215294927 61244.90699437796 9.756522065290937 0.2272188292996135
0.554710363426304 13.079724133206303 52275.955928454474 10.238669595636477 0.2304637528037726
0.5743974919925721 13.057778061259356 44706.82719145511 10.741080808333939 0.23374383543342017
0.594458520293521 13.039453117083724 38305.41640819998 11.265002444919677 0.23706527990924323
0.6149006310654482 13.024452691755407 32881.51064976335 11.811367942135323 0.24042964028428226
0.635709447794563 13.012390504900923 28275.07032843979 12.381157039207356 0.2438385508263328
0.6568843217196296 13.002985607896385 24355.607429362506 12.975038204031577 0.24728972735050275
0.6784215283953828 12.99594820831695 21015.125591221426 13.594379756994252 0.25078841653287554
0.700314756543065 12.991037092677354 18160.29769009497 14.240360676748297 0.25433703314066275
0.7225551741572034 12.987990502224896 15718.51838424216 14.914171609131376 0.25793756362559206
0.7451485452320473 12.986638066770084 13625.00187414347 15.616814035396512 0.2615896176127241
0.7680724996009521 12.986760948701177 11827.737343724812 16.349611296879196 0.26529565658313675
0.7913245471580589 12.988139703006492 10282.115231690279 17.114153526451663 0.2690600977572771
0.8149029452608169 12.990686932685847 8949.447548965316 17.911897031896938 0.2728853761996558
0.838792475379531 12.99415399375184 7801.80164185369 18.744167818592516 0.2767722155695514
0.8629767237045428 12.998425500670523 6809.007496550136 19.6123902151373 0.2807218050000716
0.8874640433718254 13.003395598151219 5950.889249603251 20.518613644462064 0.28474016246478
0.9122077566371525 13.008862420674351 5207.417496871694 21.38380469795317 0.2883738999941913
0.9216561911549723 13.000594967851784 4917.746349033501 22.814787303221376 0.9786807910360644
