M[M_sun], R[km], Lambda[1], P_c[MeV/fm^3], rho_c[fm^-3]
0.24162668629717493 15.618656898711224 2160425.4255784233 3.5677272577965504 0.1711233750220791
0.2536411785482632 15.277354185504446 1723139.5958000736 3.7847855804998947 0.17388774894164316
0.2660361771312094 14.98135000379144 1383156.0787560611 4.01132995826456 0.1766657967699889
0.2788084513041225 14.723649865383829 1116545.4806050991 4.247617540817508 0.17945623056936424
0.291961245975061 14.498565042039607 905983.2273325903 4.49427297367536 0.18226560678276296
0.3054939463746768 14.301368963442274 738773.4724812382 4.751449013945576 0.18508957591587114
0.3194076854120772 14.128304978494832 605209.1156096499 5.019832594940111 0.1879348589562452
0.33370427523454177 13.976120041648738 497798.43398778874 5.299641359351506 0.19079795363269378
0.3483825735600078 13.842170207310806 411111.81495230814 5.591611284653073 0.19368530582869556
0.3634404686042947 13.724167194693793 340735.74205489235 5.895900330568646 0.1965918066017858
0.37889249921270973 13.620172835332863 279480.72548618173 6.21337635762831 0.19952521650335914
0.39472091359083167 13.5286106668644 236483.66096540648 6.54430351240883 0.20248183397637887
0.41094237500025027 13.448039333296036 197936.0265894691 6.88937067078945 0.2054651421625098
0.42754697730461494 13.377214564613512 166150.22207368756 7.249288720189979 0.20847832246493717
0.44453937728505233 13.315064481481063 139859.1041057987 7.62432630889105 0.21151707707174636
0.4619160113249279 13.260720084398965 118030.13093433845 8.015413000096602 0.2145872685154559
0.47967680754715036 13.213274010676345 99850.66519261383 8.423262352471834 0.21769068682465442
0.4978294363801938 13.172098259844574 84679.8295032085 8.84832838170766 0.22082499144514658
0.5163653397573738 13.1364835846677 71970.91075451233 9.2914579580286 0.2239932183914652
0.535277470788184 13.105936361340083 61305.59363099616 9.753547729637576 0.22719846542332298
0.5545808539341616 13.079890836120155 52328.17232746673 10.235406738334783 0.2304420826005019
0.5742592830511518 13.057917923479867 44753.72032461126 10.737524560541512 0.23372100322100509
0.5943116791135491 13.039580476702248 38350.033638675624 11.261108868062967 0.23704095277058318
0.6147432381340817 13.024552480810797 32919.79004995974 11.807114033907082 0.24040376942476538
0.6355404933058925 13.012467234202052 28310.070995060145 12.3765183622058 0.24381108487560296
0.6567066338238675 13.003071125485347 24385.99222966268 12.970036059855675 0.24726113714561904
0.6782347166855763 12.996005760198521 21040.67389009303 13.58894311214049 0.25075814675089414
0.7001178830507493 12.9910840953666 18184.224765681163 14.234460379630455 0.25430502374083436
0.7223459430765808 12.988014252115194 15739.182311119826 14.907776635069464 0.257903750987123
0.744928355204653 12.986647933146594 13643.473870359143 15.609953763409628 0.2615545524529254
0.7678443303745547 12.986758690452218 11843.860431254643 16.342192821924915 0.2652586773461075
0.7910836756673246 12.98813214898217 10296.079489020205 17.106139615195808 0.2690211288205779
0.8146510501024868 12.990657721715296 8962.79504639704 17.903247982416698 0.27284433707830874
0.8385282059295127 12.994120677836008 7812.616120917403 18.734921993398586 0.27672973578670373
0.8627034317872065 12.998389848759686 6819.539783585516 19.602427392557804 0.2806771080983808
0.887174858218285 13.003329001641404 5960.192285830466 20.507885871683914 0.28469315170109866
0.9119291092061336 13.008810117938298 5215.267763373675 21.453089946135435 0.288780876739827
0.93694338031156 13.014702166877772 4568.847693488652 22.4395729148385 0.29294060649953935
0.9622165559914443 13.020908497275762 4007.9246196860613 23.469259870274776 0.2971753430454238
0.9877358741337459 13.02728879264329 3519.484314316091 24.544618794242155 0.3014915717716982
1.0134732947474832 13.03375114319758 3094.52144109894 25.667649800905924 0.3058913608549013
1.0394310724213036 13.040205025476302 2723.8222610662087 26.840195718608577 0.31037510118243816
1.065579207067222 13.046539092406082 2400.2344414666713 28.06540705240956 0.3149519469363423
1.091902197211846 13.05266139183259 2117.501518217546 29.345405787169614 0.31962281272637516
1.1183943968653942 13.058496821909497 1870.218584721898 30.682809735366714 0.3243914475159033
1.1450213529103734 13.063960102378836 1653.5603539634333 32.08115846302284 0.3292668603263362
1.1717785890224977 13.068973737224765 1463.4843950591403 33.542238631477446 0.33424575292635095
1.1986296070844715 13.073432484101374 1296.6558858598635 35.070662121016895 0.3393421704304207
1.225570063872743 13.077303813811083 1150.0553467077746 36.66853955407669 0.34455341615980306
1.252560705872054 13.080476869170043 1021.1068382135477 38.34075109846581 0.3498928956241934
1.2795978804641341 13.082918370660856 907.5674879657056 40.089691451690726 0.35535812864002364
1.3066364939452768 13.084516225960886 807.5439581272104 41.92076534392086 0.3609632891071261
1.3336704257280485 13.085233431596803 719.2816224463976 43.83732715978689 0.36670961299834604
1.3606740785696623 13.085036732146948 641.2547572985301 45.84428420813304 0.37260608536505674
1.3876015657071499 13.083788674973407 572.3867934112752 47.946853861711865 0.37866203763299844
1.4144533842366054 13.081509998939536 511.34193938901313 50.14965409739768 0.3848824338821038
1.4411826001390895 13.078088804302816 457.3315618921029 52.458157328741606 0.39127557527513973
1.4677655041916728 13.07348450372966 409.42309738832637 54.878644727826504 0.39785247421506
1.4941727453080251 13.067631575575737 366.9178891246172 57.417297763782656 0.4046221776402331
1.5203825902423163 13.06049835786877 329.18758614318847 60.08073526296158 0.4115944414198931
1.5463639597949563 13.052030538819194 295.60510119085694 62.87605277314787 0.41877978870628585
1.5720785253246785 13.042163522585192 265.7451557306782 65.81086569548066 0.42618957304795374
1.597500669141252 13.030855285894988 239.16926517855418 68.89335656640172 0.43383604682142296
1.6225869965784103 13.018057792395046 215.46061775433787 72.13232691947412 0.4417324356068155
1.6473401500959155 13.003731454238485 194.30821822850464 75.53725421079197 0.44989301920848224
1.671688750760172 12.987822146265723 175.42266888446824 79.11825009930436 0.4583327847006014
1.6956279317356056 12.970293767114526 158.53669502159562 82.88512007554108 0.4670634187308545
1.7190917590057944 12.951069027774826 143.44312345485173 86.85076410760375 0.476107211588841
1.7420963051041145 12.930190299385567 129.92277564887374 91.02696032521348 0.48547934643996127
1.764582047067481 12.90757415172795 117.801632885482 95.42734646512044 0.4951999908650211
1.7865085161526622 12.883154688947485 106.93782551944611 100.06601610476064 0.5052883941420686
1.807849518608075 12.856923215720167 97.19037667566639 104.9592492271327 0.5157693466150767
1.8285739683340156 12.82883907383723 88.43144115214045 110.12341390363162 0.5266648033512028
1.8486490041451238 12.798879288926589 80.5536257934999 115.5762934511367 0.5379987862540834
1.8680404409768414 12.767002289202322 73.46098314390984 121.33813057342759 0.5498008155174572
1.8867164324910666 12.733186209164089 67.07792874105165 127.43020912165268 0.5621002557562349
1.9046465741290832 12.69739883679213 61.32536182750848 133.8752122391461 0.574927344316275
1.9217955810437812 12.659619008571838 56.13676205433599 140.6982155744831 0.5883163157689258
1.938124179249263 12.619792518302921 51.44935485167147 147.92713022967536 0.6023063765895149
1.953619333925103 12.577949790019007 47.215020872489426 155.59073056325943 0.616934340778203
1.9682502736933638 12.534064361644244 43.3868443653783 163.72213047649126 0.632246093235396
1.981978814661548 12.488107252238228 39.922356680050015 172.355189920974 0.6482836311601078
1.9947771728890797 12.440064324215905 36.78571805287209 181.52930708845975 0.6651006288747181
2.0066200559026086 12.389928414377422 33.94185635539947 191.2862374323956 0.68275083317722
2.0174847216268836 12.337710052299622 31.361733035766594 201.67192538230572 0.7012933601364214
2.0273350464379822 12.283368192170062 29.022810918398907 212.73659991345207 0.7207919984423456
2.0361592232698946 12.226940752023825 26.898381426319016 224.53488786645588 0.7413144775190392
2.0439188058678255 12.168392601392707 24.969313825874682 237.12859680206677 0.7629402870055377
2.0505940120483954 12.10772759953828 23.211948648654964 250.58375334670214 0.7857495603192489
2.05617661560598 12.045002386504052 21.615345268502356 264.9738713026171 0.8098321176761561
2.0606471262347137 11.980222693613703 20.16189426669493 280.38065735982553 0.8352878966650763
2.063976180764307 11.913381552486008 18.840809495774902 296.89306903975836 0.862221748435172
2.066149881890379 11.844511765425567 17.63614176639144 314.6113661939453 0.8907542247603846
2.0671618218687735 11.773669653208696 16.540147134157667 333.64526330122857 0.9210127251269389
