M[M_sun], R[km], Lambda[1], P_c[MeV/fm^3], rho_c[fm^-3]
0.24162668629717493 15.618656898711224 2160425.4255784233 3.5677272577965504 0.1711233750220791
0.2536418716000245 15.277352487342952 1723182.9154781078 3.784799983167923 0.17388792846395207
0.26603775351361114 14.981275221011403 1383036.3312931948 4.011360235276317 0.1766661626498077
0.27881199545870167 14.723575981264483 1116426.6146032012 4.24766471621256 0.17945677773285504
0.29196468898215827 14.498517014787884 906012.7101980232 4.494338285083396 0.18226633404044942
0.3054984024287873 14.301303490043072 738726.9740603219 4.751534678655751 0.18509050125823456
0.31941342067866585 14.128232824254276 605213.687764404 5.019939243674779 0.18793596547803004
0.33371032420389146 13.976031837789376 497735.4271688577 5.299771799479632 0.19079926694834468
0.3483894354363504 13.842123794909456 411066.36225888884 5.59176584153684 0.19368680120906315
0.36344943782379685 13.724103645359802 340687.3178402197 5.896082476062714 0.19659351735081218
0.37890253870838814 13.620081659075078 283346.4798737468 6.21358829548405 0.1995271491214137
0.39473230328581865 13.528544423334766 236448.89756078497 6.544545022267526 0.2024839516915758
0.410955128986434 13.447956462138844 197904.91883782457 6.889646414340989 0.205467490510306
0.4275619891456566 13.377125363815157 166116.54313640937 7.249601284407377 0.20848090822860438
0.4445545229749169 13.314998474489652 139835.7086101825 7.624674829591317 0.21151985152061856
0.46193294859753725 13.26064633185197 118010.84931697228 8.01580355545422 0.2145902897768975
0.479695865620282 13.213224510082052 99846.6489893363 8.423697987287474 0.21769396218946174
0.4978501945704716 13.172053935362891 84667.75192265835 8.84880748949223 0.22082846039021387
0.516385950523462 13.136466958131455 71958.26020540981 9.291988291100852 0.22399695196935626
0.535302220685915 13.10589773495953 61295.465619827875 9.754132882959661 0.2272024716927057
0.5546060398402632 13.079854741917869 52316.98600046081 10.23605052527675 0.2304463699703933
0.5742864605389001 13.057879840417163 44743.10447668694 10.738224183733193 0.2337254950186118
0.5943408385860266 13.039570538824451 38340.38349328196 11.261874847177374 0.23704573862195136
0.6147736145333541 13.024535070018977 32913.060182737965 11.807950892905787 0.24040885892374592
0.63557268579377 13.012456222174876 28303.98737865481 12.377430907243033 0.24381648812248197
0.6567420085817736 13.003040790742364 24380.13354808574 12.971020100451257 0.24726676151813856
0.6782714226924688 12.995998049022766 21035.995682468918 13.590012619537395 0.25076410148154193
0.7001567243841839 12.991076440406664 18179.696889086412 14.235621086956726 0.2543113206347277
0.7223874458356238 12.988005242114662 15735.60402531794 14.909034643759236 0.2579104025532758
0.7449718411067284 12.986651138985724 13639.401332935759 15.611303294475869 0.2615614503605567
0.7678890024753149 12.986761887923786 11840.454700955319 16.343652147507537 0.26526595171812534
0.7911308928276967 12.988128240638742 10293.485967269351 17.107716057521976 0.2690287945257819
0.814701503885157 12.990658833540053 8960.402457117818 17.904949349092284 0.27285240994153087
0.8385810521638284 12.994122930729441 7810.432300401879 18.736740738912626 0.27673809198129656
0.8627590361894382 12.998384264479474 6817.569731561531 19.604387160345972 0.28068590034048546
0.8872302167036972 13.003334432352048 5957.976532744828 20.509996091637415 0.2847023990121297
0.91198812370914 13.008831456375544 5213.6857832580645 21.455360693779912 0.2887905994236617
0.9370040938227591 13.01471526357696 4567.39370797782 22.44199473227441 0.2929506653503944
0.9622782452846451 13.020923228539479 4006.4816258010305 23.471863143068635 0.29718591570974734
0.9878010407941749 13.027307265810094 3518.323297519541 24.547415772485035 0.30150268283846926
1.0135410360816632 13.033763285644554 3093.6936226465755 25.670629659486856 0.3059028607030535
1.0395000116803501 13.040220939631887 2722.853556588611 26.843394878594193 0.3103871870327925
1.0656509120872284 13.046555507943376 2399.4129178307544 28.068840484825767 0.3149646486958207
1.0919761623507278 13.052676532577879 2116.7774468299663 29.349061325391734 0.3196359704194629
1.1184717171096772 13.058513600199943 1869.582137244099 30.686731012230016 0.324405280074131
1.1450982974950183 13.063966174116871 1652.9466957164323 32.085332682649124 0.32928120253382803
1.1718594078443718 13.068982096708709 1462.9406675084613 33.546714744579695 0.3342608378890121
1.1987117011124186 13.073449030507819 1296.1308794677523 35.07546124765366 0.3393580398411623
1.2256543800754043 13.077312721356904 1149.6740987864969 36.67364777038831 0.34456989447488945
1.2526462709831232 13.080485754059525 1020.7419184390006 38.346227161410546 0.34991024259112996
1.279686370329215 13.082924891368206 907.2678422650628 40.09552108934702 0.3553761635913761
1.3067245437483317 13.084523854837204 807.1867424415011 41.92697264710465 0.36098205472505296
1.333762186828945 13.085228561061074 718.9865407901435 43.843981702877585 0.36672939374188784
1.3607670650013115 13.085037035501296 641.0091761485627 45.851372050961466 0.3726266958491911
1.387696467444735 13.08378202872687 572.1616668948346 47.95440526995149 0.37868353137849603
1.4145509080957155 13.081499060650032 511.1412480920645 50.15775184977721 0.38490512467666205
1.4412712602015512 13.078056752208441 457.13171349098945 52.466788573618345 0.39129927343972326
1.46786517360562 13.073462761677291 409.25654526171604 54.88784767204647 0.3978772468857867
1.4942722454502306 13.067604227998473 366.7587299435181 57.42711370843791 0.404648097142233
1.5204829948890977 13.060469393387596 329.04973964943076 60.09120888037185 0.4116215856933405
1.5464655275514647 13.051992039015168 295.4786585293054 62.88723241147282 0.41880824177464354
1.5721802091484907 13.042123897310406 265.63350659176643 65.82280371404102 0.4262194255329602
1.5976029462744938 13.030806001402828 239.07606849850103 68.90610970515998 0.43386739650988515
1.6226842749725352 13.01796878714669 215.3712902899143 72.14595670654909 0.44176538807486765
1.6474417218903585 13.003669751306107 194.22324179395656 75.55182741236239 0.4499276885096579
1.6717907124492197 12.987749042512815 175.3456516019169 79.13376314954138 0.45836897646932356
1.6957292685299512 12.970211861913816 158.46429389719063 82.90172427564117 0.46710157513432526
1.7191921040533165 12.950977606442464 143.38201507051622 86.86854490137681 0.47614747633842
1.7421966885267612 12.9300937662752 129.86663090564664 91.0459251149174 0.48552153611636434
1.7646781736475126 12.907457060173668 117.75652206493648 95.4476778778807 0.49524460252440095
1.7866067393883556 12.883038468207104 106.89230729922419 100.08773184163252 0.5053352557601276
1.8079472691991114 12.856796806458304 97.14984555510817 104.98246185646585 0.5158186386821212
1.828660223636391 12.828681924302693 88.38813387939953 110.14834438368024 0.5267170865176394
1.8487421890497977 12.798732004169077 80.51794833898641 115.60298087406322 0.5380539132607278
1.8681328195052318 12.766844893152815 73.43327727228402 121.36672165789653 0.5498590164879724
1.8868063721649284 12.733014750647227 67.05323921006648 127.46086432908535 0.5621617805129502
1.9047332159756434 12.69721759212915 61.29917766520124 133.90799451771412 0.5749920667129754
1.9218792760208439 12.659424799163673 56.109741524174694 140.73342572544394 0.5883849185327412
1.9381984893415747 12.61955364153784 51.42554346725784 147.96497902406298 0.6023791806286144
1.9537019510522184 12.577743446169631 47.19728482178068 155.63132489304562 0.6170112710966975
1.968324092890154 12.53383036207992 43.3680978722279 163.7658437805547 0.6323279435134773
1.9820480714393183 12.487856809608546 39.904827071211585 172.40216827015485 0.6483703715453638
1.9948427677005467 12.439802074777212 36.76984796564234 181.57984825928537 0.66519269031817
2.0066815584217235 12.389652263111088 33.92681799070227 191.3406694954456 0.6828486863497794
2.0175412633422454 12.33741832990202 31.34841903479389 201.73061022896823 0.7013975199504645
2.0273869567926996 12.283059686721238 29.011046478509584 212.79978927396374 0.7209025444480616
2.0362049268479936 12.226618735135256 26.88717091721312 224.60316634001015 0.7414324984860577
2.043959133285022 12.168051740015892 24.95827782259895 237.20229689787763 0.7630659524391014
2.0506286466499843 12.107374294542407 23.202522342121274 250.66356721351573 0.7858841084576578
2.0562060457537843 12.044633469633633 21.606138971565752 265.0602334130922 0.8099758292455195
2.060670834421004 11.979833460495184 20.154489323038035 280.4741627598625 0.8354414410810108
2.063992669414422 11.91297873001104 18.83298193341104 296.994397538795 0.8623859187597648
2.0661593868607553 11.84409339794163 17.62918871603756 314.7214380276947 0.8909304281167539
2.067164567406086 11.773231696848363 16.53321084516131 333.7648041270256 0.9212015303124316
