M[M_sun], R[km], Lambda[1], P_c[MeV/fm^3], rho_c[fm^-3]
0.24162668629717493 15.618656898711224 2160425.4255784233 3.5677272577965504 0.1711233750220791
0.25364422550883803 15.277283604216226 1723203.038034213 3.7848238799627922 0.17388822632597192
0.2660403434256581 14.981249576016408 1383011.0356616261 4.011410471019578 0.1766667697191179
0.27881622802954 14.72350981643961 1116417.5966451487 4.247742990366089 0.17945768559507935
0.29197055957403806 14.49840957229173 905889.1365994314 4.4944466515257275 0.18226754072593532
0.30550591988549386 14.301206142310495 738642.8259232406 4.751676816817648 0.18509203662165782
0.3194220059058173 14.128129141923374 605084.2311382964 5.020116200478843 0.18793780147317124
0.33372076631387393 13.975949744935573 497663.84636707895 5.299988233574837 0.1908014460805543
0.34840221361865803 13.84201741576297 411000.56144672266 5.592022293198889 0.1936892824494409
0.363465754757387 13.723965227444737 340632.5602733306 5.896384706662033 0.1965963559645598
0.37891873544058696 13.619990278891452 283307.2562839922 6.213939962268415 0.19953035589905274
0.3947512361690861 13.528449780201234 236408.26004271678 6.544945760010684 0.2024874656202131
0.4109766108123163 13.447880410310756 197865.40926411518 6.890103959018639 0.20547138715278204
0.427584747811735 13.377066335376105 166080.78180579454 7.250119929345002 0.20848519884525601
0.4445802135286269 13.31493352254266 139802.64283322735 7.625253141210806 0.21152445525296285
0.4619617883762484 13.260564368511917 117980.12636368455 8.01645162055865 0.21459530308441843
0.4797271958837112 13.21313657018408 99805.39650555434 8.424420859121147 0.21769939717509468
0.49788396691379283 13.172003482399989 84642.11733978006 8.849602502635486 0.22083421662505404
0.5164226902399697 13.136405163698594 71936.66521247671 9.292868310896097 0.22400314736357763
0.5353414971921077 13.105838323537661 61275.82027342805 9.755103875840932 0.22720911962394735
0.5546481384027294 13.079820172243988 52299.36612781919 10.23711882020901 0.23045348439789895
0.5743304925731192 13.0578526101664 44728.57189731482 10.739385138938456 0.23373294871064854
0.5943884405942104 13.039517683817408 38328.05286694569 11.263145921084998 0.23705368031472793
0.6148253440321106 13.024499915509988 32900.352197793705 11.8093395939846 0.2404173045433017
0.6356303001159146 13.012429265860424 28291.20001194193 12.378945212377882 0.24382545443555137
0.6568004245836386 13.003012484823522 24369.833316867815 12.972653055741556 0.24727609482095309
0.6783330037293281 12.995987851483628 21029.22498655083 13.591787412363647 0.25077398305250304
0.7002194522036521 12.99105820080018 18171.74579695952 14.237547232912275 0.25432177007054213
0.7224555120761296 12.988006402719485 15728.768900934958 14.911122269808967 0.2579214406191373
0.7450435009760051 12.98665455356164 13633.624109678329 15.613542810134044 0.26157289727907185
0.7679638457858523 12.986761254532686 11835.645677226714 16.346073879126493 0.26527802344285456
0.7912088089830904 12.988139567914764 10288.463591906262 17.110332158543127 0.26904151573916163
0.8147843909051398 12.990657091835324 8955.828041479188 17.90777277868485 0.27286580691306267
0.8386675586104433 12.994132799760292 7807.2484435284805 18.7397589743498 0.2767519592114534
0.8628476960586487 12.99840822222227 6814.334531139039 19.607639444056396 0.28070049128638613
0.8873281332749413 13.003366401061804 5955.281830111579 20.5134980758041 0.28471774524973936
0.9120852740614158 13.008841929622207 5210.841740394779 21.45912910236883 0.2888067346579573
0.9371072124279568 13.014727205809463 4565.0455959494875 22.446013867990413 0.2929673585520098
0.9623887281154905 13.020952931223857 4004.2690748629566 23.47618344039734 0.29720346172088463
0.9879097008568438 13.027339754623101 3516.4284565619823 24.552057565306917 0.3015211224777881
1.0136512841382292 13.033793941763276 3091.753179110917 25.67557498075201 0.30592194565023084
1.0396162615692992 13.040243324271962 2721.296803628305 26.848704182212952 0.3104072446258203
1.065767058954102 13.046577673856843 2398.197678551579 28.074538621709706 0.3149857285818942
1.092099362950796 13.052700139122983 2115.6729593630325 29.35512810124971 0.3196578070875323
1.1185987799393522 13.058539137841064 1868.5603872296745 30.693238853475076 0.32442823690582057
1.1452287074204706 13.063994154271324 1652.034804341038 32.092260350094755 0.3293050053168234
1.1719925819114339 13.069005202503531 1462.0135303293644 33.55414349330714 0.33428587353815964
1.1988483882415315 13.073464919037566 1295.4065816642315 35.083426136951296 0.33938437757078327
1.2257945780284478 13.0773309770646 1149.0171573083999 36.68212568805076 0.3445972429249151
1.2527902176211212 13.080496491534138 1020.1112703035063 38.35530079008855 0.3499389457793581
1.2798325078670392 13.082932925307592 906.6472521513122 40.105196444520494 0.35540609590795547
1.3068763793190692 13.084521095487938 806.7049287973618 41.937274866731684 0.3610131998957649
1.3339141611222367 13.085233194842273 718.5536396759938 43.85502628267337 0.366762223944877
1.3609214429745535 13.085031404002889 640.5800772295877 45.863135850391856 0.37266090337994334
1.3878529796532633 13.083777592344916 571.76275433213 47.96693853161658 0.3787192050870198
1.4147097595236666 13.081481477469897 510.78762262195715 50.17119199317885 0.38494278543960786
1.4414336633437232 13.078034061228546 456.8493648193337 52.48111426445169 0.39133860641937906
1.468027630704251 13.073434011591145 408.9927858940022 54.90312233751734 0.3979183635381456
1.4944369813233431 13.067566868568557 366.51015684551686 57.44340591317574 0.40469111753895637
1.5206488939973357 13.060421027476744 328.818588247458 60.10859278637035 0.41166663922924157
1.5466327082482736 13.051935577117883 295.2794027591139 62.905788283923435 0.4188554679452876
1.5723491632366577 13.042053415010994 265.4477235812512 65.8426184781659 0.4262689747898955
1.5977729782119987 13.03072580612388 238.90422008553912 68.92727755977862 0.43391943120191556
1.6228600402020523 13.017902126703635 215.21765356816016 72.16857980081568 0.4418200834847783
1.6476117246274318 13.003564251712586 194.08759302311657 75.57601659290557 0.4499852339969273
1.6719604933994987 12.987630130980417 175.2217384088661 79.15951249280508 0.4584290493925661
1.6958978275277703 12.970080127868691 158.3534952604572 82.92928498106795 0.4671649095551262
1.719378080026342 12.950869318138903 143.26808557997813 86.89805882936098 0.47621431086417526
1.742361119059727 12.929921165411336 129.7699249669197 91.07740455096555 0.48559156627440764
1.7648432153856017 12.907281570875307 117.66955620351276 95.48142604166004 0.49531865353133164
1.7867701397908424 12.882845497980112 106.81302449968784 100.12377811760739 0.5054130420598579
1.8081086652789657 12.856588814240677 97.08233767862328 105.0209931437911 0.515900459951521
1.8288186410576617 12.828454414670796 88.32488884261956 110.18961233365167 0.5268034447763041
1.8488979698171775 12.798490347539392 80.45882969227632 115.64728083703315 0.5381454216974818
1.8682753507980505 12.766550463809283 73.38046189784035 121.41418201898946 0.5499556283908755
1.8869540246490437 12.732730980303197 67.00479270862068 127.51175151957872 0.5622639106982343
1.9048777265854508 12.696916333768925 61.253865049312125 133.96241304631695 0.5750995057852406
1.9220191679764593 12.659099164657437 56.07050318494368 140.79187506515464 0.5884988000736582
1.9383322320017575 12.619213521156151 51.38764765297128 148.02780915538744 0.6025000375122109
1.9538303916783069 12.577369160592811 47.159487244091395 155.6987132956111 0.6171389788652333
1.9684440430428136 12.533444142242736 43.336759070882124 163.83823426977963 0.6324632233795153
1.982161241877983 12.487441986806129 39.876243056323005 172.48015598318767 0.6485143673304787
1.9949521338720455 12.439366257032383 36.74370428845508 181.66375137090688 0.665345520999371
2.00678772051749 12.389207640632108 33.90165247205512 191.4310327918557 0.6830111335314806
2.0176353062358476 12.336934449860292 31.326313383373783 201.8280346684686 0.7015704387204492
2.0274719267904993 12.28254965686601 28.990767262578935 212.90469286273975 0.7210860670004428
2.036281964271402 12.226085538181378 26.868005974605662 224.716519914706 0.7416284328384853
2.0440270075784657 12.167492305656088 24.940299532392753 237.32465262512264 0.7632745801938428
2.050687715113866 12.10678650258068 23.18714465257814 250.79597089176815 0.7861071482988483
2.0562598958050833 12.044042739722636 21.59273562629961 265.2036139304625 0.8102144227566561
2.060707718558341 11.979193770100501 20.140936542175343 280.62922698715846 0.835695782504659
2.064014074673004 11.91229870784081 18.82024952049938 297.1626298041836 0.8626584851737392
2.0661750885544743 11.843403060116524 17.617477137355124 314.9041890393734 0.8912229765420939
2.0671682626469097 11.772510308464055 16.52257551492071 333.9632790575201 0.9215150056110819
