M[M_sun], R[km], Lambda[1], P_c[MeV/fm^3], rho_c[fm^-3]
0.24162668629717493 15.618656898711224 2160425.4255784233 3.5677272577965504 0.1711233750220791
0.25364136156799344 15.277379539957657 1723225.0413098678 3.7847884934432425 0.17388778525007675
0.2660363229211431 14.98134392103773 1383043.4260369055 4.011336081784874 0.17666587076911802
0.2788090681730761 14.723628886626567 1116629.8097355217 4.247627082013026 0.17945634123285398
0.29196205669830694 14.498519018891905 906026.2166318407 4.494286182841911 0.18226575386989818
0.3054953545125198 14.301326232021331 738743.6707648719 4.751466339511387 0.1850897630650482
0.31940894347990473 14.128292243353192 605213.0368395189 5.0198541644531 0.18793508274826753
0.3337069929233516 13.976061479841995 497790.544551221 5.299667740577756 0.19079821924786775
0.348383604915071 13.842167898439435 411092.8146747232 5.591642543381209 0.19368560826548925
0.3634433365595308 13.724126559039663 340733.5146216371 5.895937168949379 0.19659215259565346
0.37889457014301137 13.62012802895132 283378.71852784493 6.213419221341667 0.1995256073688137
0.3947232369803892 13.52859201312022 236477.64660403368 6.544352356872886 0.202482262276343
0.4109449740343532 13.44802745427559 197930.7860653234 6.889426438783349 0.20546561710614797
0.42754896069497456 13.37720114351176 166137.55157745656 7.249351934891666 0.2084788454239637
0.4445423953516252 13.315056570654988 139856.21898112755 7.624396795509495 0.21151763819055194
0.4619195375777201 13.260679327267749 118026.92738740752 8.015491987873112 0.21458787954976608
0.4796803403394716 13.213281569927693 99847.54406414562 8.423350457169363 0.21769134924881173
0.4978337477704133 13.172087403740873 84675.43745003176 8.84842527841135 0.22082569301868207
0.5163698741513613 13.136471167669079 71967.48612669343 9.291565214546226 0.22399397348403594
0.5352830067184631 13.105924916888688 61305.03771573185 9.75366607298896 0.22719927566454934
0.5545853878400279 13.0799050594338 52323.225973075256 10.235536939707321 0.23044294969085127
0.5742634817099567 13.05793522163858 44751.940454002375 10.737666054181142 0.23372191165400075
0.5943179321116409 13.03957621642548 38348.54498420579 11.261263781420135 0.2370419206720421
0.6147501313820968 13.024550147054608 32919.806375372624 11.807283281868393 0.24040479873475415
0.6355466376199715 13.012465280142477 28309.244157227404 12.376702916723938 0.24381217763659935
0.6567149327465118 13.003056133444696 24384.007452698108 12.970235073444707 0.2472622746256846
0.6782417208762468 12.996002265709887 21039.73543301098 13.589159410253847 0.2507593510408396
0.7001250693511339 12.991075196204841 18182.77469163201 14.234695121676648 0.2543062972278915
0.7223547736140603 12.98801091705771 15739.43299563763 14.908031054936693 0.2579050962008653
0.7449383647302765 12.98665030992817 13642.809187655932 15.61022669237069 0.26155594748473343
0.7678518953873084 12.986760306898617 11842.872677629533 16.34248795518263 0.2652601485113752
0.791093520764326 12.98812608570638 10295.623662346658 17.10645843350952 0.2690226791260765
0.8146629790334703 12.990653827439482 8962.243048926128 17.903592064699343 0.2728459697241368
0.838540281016205 12.994107365774951 7812.547525143143 18.73528981368837 0.27673142573062
0.8627163966722167 12.998385042077365 6819.341883859004 19.602823732254926 0.28067888622464343
0.8871858311110998 13.003323646170422 5959.730246148038 20.50831263776033 0.28469502185621665
0.9119416818012928 13.008821551760299 5215.004113896683 21.453549176122714 0.2887828430296455
0.9369556053564891 13.01470175250744 4568.4983053529195 22.440062696050404 0.29294264077185445
0.9622300457301796 13.020903119035248 4007.5270628386857 23.46978634750561 0.29717748122588983
0.9877505229383017 13.027296491324966 3519.4022695841386 24.545184444760846 0.30149381883268206
1.013486461166924 13.033755746176135 3094.271332851635 25.66825243555434 0.3058936865380704
1.039445004331295 13.040205416404731 2723.58654878186 26.840842702666208 0.31037754537170575
1.0655930608489483 13.046546547225537 2400.0614616942444 28.06610141336452 0.314954515679446
1.091917371238539 13.052664729233145 2117.412672083166 29.34614506459394 0.3196254736711841
1.1184109401229543 13.058501115217771 1870.1138337773377 30.683602752873863 0.32439424493654606
1.1450368724155306 13.06396515078091 1653.4034799215353 32.0820026329488 0.3292697608110544
1.1717946766663467 13.068976306099835 1463.366936435538 33.54314385278466 0.3342488036154885
1.198644875718083 13.073437235419867 1296.5154824248768 35.071632664619216 0.3393453797549986
1.2255875589927143 13.077301905779278 1150.0069887907875 36.66957260422992 0.34455674861968466
1.2525779557183672 13.080477227178367 1021.08713584986 38.34185853707885 0.3498964037469448
1.2796162537395388 13.082918357196593 907.5239046792748 40.090870392651325 0.35536177588949697
1.3066561858148285 13.08451403055063 807.498224909182 41.92202065888508 0.3609670841144423
1.3336883151676988 13.085233495028675 719.2101119334442 43.83867291805443 0.3667136132878921
1.36069365011043 13.085035999509119 641.2228622693099 45.845717590707366 0.37261025344687254
1.3876200583003753 13.083791673118599 572.3177392033972 47.948380988881894 0.37866638432989175
1.4144729847120487 13.081510555967638 511.29407068448273 50.15129170848924 0.38488702264885083
1.4412012805426897 13.078084380026242 457.2762841864369 52.45990282490742 0.3912803677536301
1.4677858608941305 13.073481364074627 409.39797622267605 54.88050583514239 0.3978574839812415
1.494192882918295 13.067625243982251 366.882392677064 57.41928283400968 0.40462741931931
1.5204028152104514 13.060494622731909 329.15655621543186 60.082853329551625 0.41159993077246804
1.5463844683790844 13.052023412551796 295.5818647581762 62.878313612836465 0.4187855427230381
1.5720992927421371 13.042157096043804 265.7194462409321 65.81327989608813 0.42619561005376616
1.5975221470294492 13.030845257529627 239.15631492498994 68.8959356015417 0.43384238658998536
1.6226088771183835 13.018045850180135 215.45176879532616 72.1350832309519 0.4417390994868463
1.6473607900823741 13.003719132094023 194.28931059596403 75.54020129957298 0.4499000302628512
1.6717099808020393 12.987807018392857 175.40984324776826 79.12138724446086 0.45834010362436023
1.6956478367675591 12.970279919721106 158.52148683223209 82.88847787186933 0.46707113493703734
1.71911295658528 12.95105251625918 143.4284822475366 86.85435983274886 0.4761153541371642
1.7421184085575947 12.930171015889979 129.9188741670605 91.03079547614725 0.4854878782391206
1.7646025465493358 12.907550595767315 117.79488784188507 95.4314579706912 0.49520901242629795
1.7865282061963423 12.883129873716015 106.92815125448281 100.07040754446228 0.5052978706784276
1.8078692535377439 12.856898693159538 97.18355717466768 104.96394336331514 0.5157793146230993
1.8285837352121452 12.828789419764858 88.41846357103752 110.128455415535 0.5266753762003987
1.8486680023363864 12.798850703027117 80.54760321075523 115.5816902436816 0.5380099341651912
1.8680587212425497 12.766970771890174 73.45336818851453 121.34391231410974 0.5498125850227145
1.8867355571272881 12.733150837060286 67.07639393626077 127.43640825671145 0.5621126973708341
1.904664845820118 12.697362278067805 61.32152442194633 133.88184149746814 0.5749404325305691
1.9218127855302456 12.659579182338504 56.13124791406434 140.7053357790966 0.5883301886351898
1.9381407576507443 12.6197501784728 51.443092520860574 147.93478399917743 0.6023210989959509
1.9536354830080567 12.577906494101763 47.2118005146356 155.59893951199993 0.6169498975577936
1.9682649100365086 12.534017176509117 43.38236696918237 163.7309701140766 0.6322626448736215
1.9819919484885937 12.488056364839364 39.91922576293373 172.36468978361546 0.6483011716177818
1.9947910062246843 12.440010583853818 36.78105767578665 181.5395273867709 0.6651192452898043
2.0066319179984915 12.389872935653688 33.93999497069271 191.29724450214246 0.6827706207185138
2.0174958604634683 12.337651706596002 31.35879964311834 201.68379239744263 0.7013144229177048
2.027345566101978 12.28330626329529 29.02022654915703 212.74937777415627 0.7208143525451726
2.036168754856298 12.22687589246987 26.89660262555815 224.54869477611695 0.7413383430910843
2.0439269990412128 12.168322890768057 24.966701653202843 237.14349999358546 0.7629656983161076
2.050600427471261 12.107655835855349 23.20954063910273 250.59989276805294 0.7857767677355093
2.0561825758466257 12.044928467694575 21.614094475038062 264.99133480241494 0.8098611779544277
2.060651824238617 11.980141369666184 20.160319598131597 280.3995776667037 0.8353189856861798
2.063979709311968 11.913299341333541 18.83883520009876 296.91355877800413 0.8622549454825043
2.0661518909139076 11.844427486594968 17.634721432341568 314.63362383997077 0.8907898548739294
2.06716259840522 11.773576892417452 16.53847347136996 333.6694355767529 0.9210509033052618
