M[M_sun], R[km], Lambda[1], P_c[MeV/fm^3], rho_c[fm^-3]
0.24162668629717493 15.618656898711224 2160425.4255784233 3.5677272577965504 0.1711233750220791
0.25364478184170286 15.277251911850081 1723225.5317001455 3.784833272597985 0.17388834340063844
0.26604066970141005 14.98126039287119 1383017.375009545 4.011430216301606 0.17666700832919835
0.27881660094306593 14.723495932840644 1116337.8765295593 4.247773756399431 0.1794580424347027
0.29197229381114054 14.498359702416192 905827.936199317 4.494489245728431 0.18226801502226803
0.3055088098308909 14.30118990484998 738617.5427944775 4.751732685568253 0.18509264011079146
0.319425983526166 14.128093098203587 605052.7172147329 5.020185755418196 0.18793852313251277
0.33372606571478586 13.975874224797277 497678.9242835972 5.300073306018679 0.19080230261890307
0.348407263395353 13.8419748046838 410974.0268765713 5.592123095651981 0.19369025774090437
0.36347043645926047 13.723945315982297 340639.93926735834 5.896503503937245 0.19659747173370876
0.37892546082811435 13.619951913332384 283272.77229634154 6.214078192120533 0.19953161638886446
0.3947579982508235 13.528412972012354 236378.41035300193 6.545103279021172 0.20248884684913734
0.41098485497029585 13.447820847661948 197839.18021446047 6.890283808269262 0.20547291882447116
0.42759331422375385 13.377021367449123 166060.95200065913 7.250323796682672 0.20848688538749385
0.4445897357996151 13.314898332260864 139781.0332367137 7.625480463259101 0.21152626488263487
0.46197304405320294 13.260526729395915 117969.59731736015 8.016706362599436 0.214597273720054
0.479738983511761 13.213129750186043 99808.89340972369 8.424705007788235 0.21770153357583863
0.49789689016187344 13.171957034053804 84631.40198637008 8.849915010304263 0.22083647931410022
0.5164377965405277 13.13636126060201 71929.15147417234 9.29321423523095 0.22400558269246085
0.5353569630742036 13.105820616977857 61264.750678145254 9.755485562529882 0.22721173285305843
0.5546645883700426 13.079801755825205 52296.42869226837 10.23753875748424 0.23045628101633392
0.5743490602556147 13.057814726354263 44722.33776655787 10.739841502211414 0.23373587870422458
0.5944080334800221 13.039495016560698 38320.678544893715 11.26364557385033 0.2370568021542476
0.6148458149500752 13.024483666339371 32896.450697395085 11.8098854882479 0.24042062449122703
0.6356515027272287 13.012420465981375 28286.68188729242 12.379540484325494 0.24382897908492412
0.6568234409233494 13.003016229183375 24366.351302441428 12.973294971771079 0.24727976374974778
0.6783565612085799 12.99596877940717 21023.846440925234 13.592485088462784 0.2507778675261044
0.7002460183359039 12.991061726316875 18168.950184678917 14.238304410289373 0.25432587779476695
0.7224823216648303 12.98800309183438 15725.703454177654 14.911942930068092 0.25792577975927755
0.7450713958912936 12.986639210300774 13631.120331513248 15.614423183039253 0.26157739716138884
0.7679934445136768 12.986756362530702 11833.60867125415 16.34702588764905 0.26528276896656755
0.791239913546605 12.988143229007248 10286.68439818294 17.11136058111692 0.2690465166098849
0.814815264185971 12.990681774055686 8895.956006108663 17.90888271056893 0.2728710734604887
0.8387006660620313 12.994135682642472 7805.742492965392 18.74094549236791 0.2767574106478257
0.8628827380391998 12.998404771721939 6812.5386474255365 19.60891797703236 0.2807062272575207
0.8873658442150504 13.00336750663932 5953.869300102244 20.514874777940687 0.2847237781719629
0.9121222254938381 13.008860921152314 5209.849975014566 21.46061054932162 0.2888130777848014
0.9371440306981046 13.014744487430146 4564.1618592621935 22.447593888289997 0.29297392105680714
0.9624297077648457 13.020965580902216 4003.4944436468636 23.47788186380787 0.29721035952300556
0.9879515286918632 13.027345604117995 3515.640050430739 24.553882387007608 0.3015283716281214
1.0136946649091343 13.033805201847512 3091.2564189114696 25.677519136706017 0.30592944852248066
1.0396617337615124 13.040262588611727 2720.7351032418214 26.85079144215469 0.3104151299180282
1.0658144051018594 13.046588487851052 2397.596106032723 28.07677875708411 0.31499401581672964
1.0921475785235695 13.052713802912965 2115.0860307156313 29.35751317212021 0.3196663918782251
1.1186462185546464 13.058550024858363 1867.846425550327 30.69579733768975 0.3244372621246735
1.1452800088123072 13.064003156401634 1651.6403612809133 32.094983896732856 0.3293143631548134
1.172044590178463 13.06901660097583 1461.6370300278436 33.55706405213179 0.33429571612252096
1.1989018601022239 13.073471929639227 1295.0448752623072 35.08655749384376 0.33939473211911386
1.2258488906237046 13.077337882663889 1148.6903907456249 36.685458755393924 0.3446079948842164
1.2528463934121497 13.080496987324866 1019.8638020381837 38.35884909555861 0.3499501190531195
1.2798901502082114 13.08294420332601 906.4218431208691 40.10900032216622 0.35541786383459795
1.3069351206219582 13.08452113666801 806.5600796687423 41.94132521709461 0.3610254447185374
1.3339733232654427 13.085241989668091 718.3768643837924 43.85936852132007 0.3667751313237754
1.3609821017653012 13.085030279687071 640.4280647887471 45.86776087813732 0.3726743523323646
1.3879153680993448 13.083771759277155 571.6253386543243 47.97186610521199 0.37873323055212765
1.4147651890780597 13.081464085868708 510.66295102805594 50.176476150541895 0.3849575922308653
1.4414966578959802 13.07802659060326 456.7312424147546 52.48674661638865 0.3913540707475381
1.468092137774522 13.073419540180144 408.8901254047833 54.90912782595344 0.39793452923295203
1.4945024596399292 13.067551188564948 366.41877051042457 57.44981150048818 0.4047080318186295
1.5207149330362066 13.060401163869566 328.74379423482515 60.11542763629649 0.41168435297876094
1.5466985569194596 13.05190986890301 295.1902629398329 62.91308396052272 0.4188740360222648
1.5724147927585157 13.042027188450682 265.3772780668794 65.85040916484455 0.4262884563609861
1.5978287628844627 13.030687444279474 238.83614110135983 68.93560030063259 0.43393989011308
1.6229262789141254 13.017865501767442 215.1637901990964 72.17747476682338 0.4418415886690913
1.647678988662471 13.003521701096513 194.0293596285708 75.5855273758191 0.4500078599240891
1.6720276544406452 12.987585056647392 175.1699916130907 79.16963676192408 0.4584526691965916
1.6959649678573716 12.970026414087807 158.31254607261369 82.94012152559775 0.4671898119028945
1.7194447097772418 12.950811757469115 143.23128264869143 86.90966343921355 0.4762405895959147
1.7424215857408483 12.929833832828189 129.73252997663192 91.08978205623815 0.4856191016676432
1.7649083354557715 12.907216343279277 117.64280524097154 95.49469569331535 0.4953477701100326
1.7868354096223793 12.882771576610088 106.79087496476413 100.13795147034261 0.505443627540167
1.80817193788487 12.856507408168572 97.05275367550203 105.03614370160453 0.5159326321927947
1.8288809811647067 12.828365332773688 88.29935172561335 110.20582027208299 0.5268373312641267
1.8489599037870097 12.798391663938688 80.43313063434182 115.66469990940507 0.5381814034901424
1.868335095357795 12.76644763633777 73.35990558632814 121.43284392084823 0.5499936171842359
1.887013615110219 12.73262013861959 66.98044452720929 127.53169214528425 0.5623038235282477
1.904933951312171 12.69679718747839 61.23533937094065 133.9838112816311 0.5751417525458438
1.9220731271674716 12.658972923249694 56.0543647058206 140.81485846676745 0.5885435804801459
1.938385543864404 12.619078352697535 51.37412614557767 148.05251537573204 0.602547561156255
1.9538798479238866 12.57722825208387 47.14973238036699 155.72521213589283 0.6171891968201385
1.9684948683827912 12.533287043233386 43.328247095939524 163.8666863309937 0.6325163720663163
1.9822071989767662 12.487279315205878 39.86562778528529 172.51082327371734 0.6485709911293496
1.9949933093926875 12.439193397177029 36.732993648971764 181.69674507374032 0.6654056194865657
2.0068282908948225 12.389026505320208 33.89233653528942 191.4665671904448 0.6830750141459951
2.017671671566716 12.336743332669503 31.31640936813092 201.8663461441579 0.7016384378106822
2.0275064868719683 12.282351809114171 28.982668061644702 212.94594582819713 0.721158236595424
2.0363119804255305 12.225874615344946 26.859840856335445 224.7610962561717 0.741705484105921
2.044053493671187 12.167273157359777 24.934189956585165 237.37276953236568 0.7633566239407865
2.050710289326799 12.106556346695662 23.18035514757924 250.84797604317367 0.7861946531603964
2.0562802015523127 12.043800008773994 21.587092173277966 265.26000012681556 0.8103082526633566
2.0607232485178173 11.978944731512454 20.136476882360345 280.69020857293526 0.8357958064986727
2.0640247700242496 11.912038205984516 18.815778326374463 297.2287906922498 0.8627656776671881
2.066181277098086 11.843126824529637 17.613421754655185 314.97606058013713 0.8913380287428125
2.067169696242205 11.772225574570921 16.51814597285042 334.0413353432699 0.9216382892793317
