M[M_sun], R[km], Lambda[1], P_c[MeV/fm^3], rho_c[fm^-3]
0.24162668629717493 15.618656898711224 2160425.4255784233 3.5677272577965504 0.1711233750220791
0.253643864901623 15.2772958672149 1723253.1118835986 3.7848174326014132 0.17388814596272265
0.26603968322399724 14.98126719638801 1383021.4068492495 4.011396917358826 0.17666660593112654
0.2788146396683399 14.723519021343275 1116429.401505932 4.247721871843596 0.17945744065204336
0.29196831316980376 14.498469492308823 905951.9391678341 4.494417413953765 0.18226721515878583
0.30550446595736663 14.301213230317385 738693.8239112885 4.751638467420714 0.18509162237498
0.31942062656796755 14.128125424534579 605143.3257725259 5.020068456743739 0.18793730611349216
0.33371772197945343 13.975991086331788 497690.51690297946 5.29992983851273 0.1908008581391738
0.34839874270609533 13.84204571360592 411016.9733383575 5.591953100989517 0.1936886129957811
0.3634606633072577 13.724020479995271 340666.1859905562 5.896303162776047 0.19659559008712607
0.37891438968962504 13.620017625478761 283319.1433781724 6.213845079880956 0.19952949068592493
0.39474569107528235 13.52848406160426 233301.7772677144 6.5448376376118125 0.20248651753284122
0.4109705640957782 13.447888463205029 197874.65399669993 6.889980509275869 0.20547033580296892
0.4275784617215183 13.377076478829014 166086.165569432 7.249979993790191 0.2084840411942735
0.4445729066219182 13.3149411240608 139811.60295351615 7.625097106590764 0.21152321311705738
0.4619533852719442 13.260589678344576 117985.74493163811 8.016276765212433 0.21459395043695095
0.4797196685950764 13.213148951305781 99812.11067385339 8.424225819518094 0.21769793074994007
0.4978751148843058 13.171994435934186 84647.31418342848 8.84938799789978 0.2208326635191167
0.516412771640237 13.136410409424839 71943.33383916572 9.292630869616314 0.22400147576216523
0.5353301299121597 13.105866967155825 61279.73742494426 9.754841888062527 0.22720732591693818
0.5546368676741265 13.079816372420447 52303.5204708379 10.236830578148082 0.23045156481821674
0.574319163377985 13.057846396983296 44733.15326449345 10.739071894997425 0.23373093758751629
0.5943758359781894 13.039523255971215 38330.83392980337 11.262802964450248 0.2370515375154678
0.6148117937785199 13.024510490354892 32903.47108844974 11.80896489858078 0.240415025770081
0.6356160828582971 13.012433186799955 28062.85836629438 12.378536625725724 0.24382303516366557
0.6567842027475832 13.003031788392967 24372.230951554473 12.972212454139095 0.2472735765228706
0.6783167537462357 12.995975362483195 21029.59966119174 13.59130853906246 0.25077131681425985
0.700203971450793 12.991060452085367 18173.224588837573 14.237027520205524 0.25431895060374343
0.7224375915985143 12.987995823858945 15731.102487415905 14.910558985007011 0.25791846232005755
0.7450238171384604 12.986653510920837 13635.116908767044 15.612938541002674 0.26156980865609986
0.7679438372602687 12.986748497053027 11837.11250787161 16.345420442457296 0.26527476622494617
0.7911878231988526 12.98813857353642 10289.755762831206 17.109626274786258 0.26903808326548423
0.8147620926665551 12.99065794902976 8957.140444292088 17.907010950856822 0.272862192094492
0.8386435725223367 12.994137104127285 7808.194355469975 18.73894458148791 0.27674821749763123
0.8628233827257917 12.998402415213796 6815.298314435002 19.606761896892962 0.28069655428570384
0.8872984794624779 13.003346734817008 5955.925644137864 20.51255315061622 0.2847136044410531
0.9120586763512555 13.008838105923846 5211.637898607296 21.458112286198425 0.28880238094557237
0.9370777529193508 13.014731534840811 4565.646718434386 22.444929396564472 0.2929628542751108
0.9623550345390013 13.020932615057735 4005.0318295510747 23.475017704144037 0.29719872731958596
0.9878798092394157 13.027325160916977 3516.948365944406 24.55080507707966 0.30151614693664525
1.0136214934510224 13.03378424065034 3092.187629561146 25.674240588816595 0.3059167959747627
1.0395854690009103 13.040237598532174 2721.7206318394083 26.84727157309381 0.31040183248653747
1.065735202580481 13.046564191214273 2398.585115357352 28.073001089259616 0.314980040580791
1.0920663625495386 13.052699226472733 2115.8584646838794 29.35349109481825 0.31965191486950606
1.118563273214806 13.058533430573409 1868.7992739841116 30.691482828567302 0.32442204241417083
1.145193340683891 13.063995516508319 1652.200910832332 32.090391038076994 0.3292985825448502
1.171956175967002 13.069003052178479 1462.2473748866314 33.55213896705736 0.3342791180780226
1.1988103698702703 13.073458457621244 1295.5594710671155 35.08127693536793 0.3393772707437969
1.2257568839048152 13.077330838999295 1149.2064273880426 36.6798380480233 0.34458986335230557
1.2527520425500132 13.080494654303795 1020.3209393282991 38.352863243730646 0.34993126424514615
1.2797923774207103 13.082931225655622 906.8049411487777 40.10258567888612 0.3553980190712832
1.3068371751568288 13.0845231546112 806.8360380274996 41.934494942814716 0.3610047957646073
1.3338734375998063 13.085233437741728 718.6980581648487 43.85204603251382 0.3667533651001309
1.3608806075028543 13.08503258016597 640.7033215545946 45.85996151867816 0.3726516728545203
1.3878104134425668 13.083776158680404 571.8799871054898 47.96355655968182 0.37870957890316914
1.4146669464834212 13.081490933822534 510.8778549119551 50.167565296146435 0.3849326230348527
1.4413900784909461 13.078037462852514 456.9303227944768 52.47724859967016 0.39132799275222846
1.4679844293237965 13.073443115897838 409.06459828547946 54.899000588042725 0.39790726852984043
1.4943924486503917 13.067578208627024 366.5747450457851 57.4390095755591 0.4046795087854794
1.5206049422902201 13.060432931302312 328.885686627107 60.10390184651865 0.4116544818103602
1.5465869488464563 13.05195069526938 295.32742833049144 62.90078108057392 0.4188427242146728
1.572302972286419 13.04207177396615 265.5032288444628 65.83727155259474 0.42625560414428654
1.5977273122523055 13.030748472985708 238.95033913162777 68.92156549019532 0.43390538982705834
1.6228147710886767 13.017929779968034 215.26675966444918 72.16247501970618 0.4418053240755983
1.6475669463608706 13.003591443843808 194.12252140378217 75.5694891853727 0.4499697054490952
1.6719151529266143 12.987662076213317 175.25844362183017 79.15256405790608 0.458412838773442
1.6958524835519122 12.970117125973074 158.3792693575419 82.92184772524807 0.4671478187629129
1.7193328841731987 12.950910045053153 143.2994443389879 86.89009446725132 0.4761962755025376
1.7423187575060664 12.92997118463363 129.79269347333815 91.06890976747327 0.4855726685079547
1.7647987580009379 12.907328109163574 117.6945154162621 95.47231900268952 0.4952986706543273
1.7867258431458306 12.882894526203945 106.83366026747612 100.11405089337626 0.5053920511319708
1.8080648780272128 12.856645807459913 97.09939718433861 105.01059529328816 0.5158783800941833
1.8287762537269927 12.828516307085554 88.34213276043425 110.17848883791382 0.5267801885056526
1.8488569328933036 12.798555887631629 80.47443877577716 115.6353261874787 0.5381207275167347
1.8682442959218528 12.766652114131048 73.39306074773621 121.40137446477306 0.549929556903936
1.8869157437012163 12.732806619331807 67.01858808046337 127.49801915350064 0.5622363499490881
1.904837479743417 12.696998408215782 61.26623568340085 133.94772766383429 0.575070512280449
1.9219814382913285 12.65918682040121 56.08195590195513 140.7761018608683 0.588468067873462
1.9382969801990766 12.619303679941662 51.39903781869644 148.01085367115797 0.6024674227947077
1.953795476703469 12.57746720614123 47.16880251062204 155.6805276319803 0.6171045152122423
1.9684131919999714 12.533546570157927 43.34447409481119 163.81870822162503 0.6324267485592897
1.9821299489408317 12.487553231433694 39.88516165102995 172.45910976265478 0.648475507785411
1.9949207559177338 12.439484502194299 36.74911734230204 181.64110868332375 0.6653042770299797
2.006759646813803 12.389331147990209 33.906981068501466 191.4066465979254 0.6829672941781836
2.017609303376497 12.337065676710015 31.330857581445184 201.8017427666502 0.7015237731882038
2.027448452901579 12.282686750661057 28.99482092972767 212.87638243336954 0.7210365395980188
2.036261134892878 12.226229036223156 26.873038012293442 224.68592891829087 0.7415755555729134
2.044009295665482 12.16764304355551 24.945324184779142 237.29163202916843 0.7632182770444171
2.0506719736986967 12.106945309595535 23.190820446683627 250.76028212979952 0.786047097705965
2.0562476232682068 12.044207547108215 21.596333332485834 265.1649188639435 0.8101500319178326
2.060697591992363 11.979369907037345 20.14459743700548 280.5873785349707 0.8356271413029291
2.064007125718703 11.91247708231751 18.824177206565306 297.11722731518927 0.8625849250062998
2.0661701894015576 11.843588249663078 17.62102656852774 314.85486792865277 0.8911440231445461
2.0671676642006482 11.77270557282342 16.525305086936697 333.90971402561445 0.9214304039219315
