M[M_sun], R[km], Lambda[1], P_c[MeV/fm^3], rho_c[fm^-3]
0.24162668629717493 15.618656898711224 2160425.4255784233 3.5677272577965504 0.1711233750220791
0.2536435543897778 15.277308913459674 1723207.7719249772 3.784812061060442 0.17388807900905576
0.26603907304889773 14.98128736382725 1382990.254835476 4.01138562531574 0.17666646947344997
0.2788135996136996 14.72357293847771 1116472.4377019985 4.24770427727928 0.17945723658161175
0.2919669347382003 14.498456033152484 905914.0008417644 4.494393055182115 0.18226694391821013
0.3055032259627034 14.301217338550378 738661.0276667645 4.751606517359034 0.18509127725333624
0.3194181689696635 14.128180715088867 605130.7166903022 5.020028680049591 0.18793689341493797
0.33371605330254484 13.975962644307419 497707.8963439645 5.299881187988633 0.19080036830912195
0.34839585417121477 13.84207010301278 411031.88890970394 5.591895455177391 0.19368805525669097
0.3634577802016301 13.72403050864673 340672.19061683235 5.896235226600742 0.1965949520161908
0.37890895050872053 13.620067396133399 283322.0541790674 6.213766031236898 0.1995287698574719
0.3947419642320879 13.528496898123269 236424.94689069854 6.544747558581955 0.20248572766144018
0.4109654254139945 13.447916662812087 197885.54352732253 6.889877660917128 0.20546945990318727
0.4275744131060131 13.377072517560704 166092.27235524674 7.249863411011014 0.20848307673481897
0.44456741712780484 13.31495579091561 139816.65067587214 7.624967111623178 0.2115221782735289
0.46194843611927244 13.260590793354515 117991.09679622388 8.016131090672433 0.21459282352661124
0.47971180013148373 13.213179123189484 99834.05940937316 8.424063329489176 0.2176967090520795
0.49786679069327966 13.17201926772903 84650.37120719488 8.849209291515375 0.22083136960853825
0.5164050844406115 13.13641808597703 71944.82577512435 9.292433054903208 0.22400008313425263
0.5353222217979269 13.105861675033026 61284.01769842277 9.754623623824708 0.22720583156443208
0.5546279859436174 13.079840229462548 52308.3009845491 10.23659044169443 0.23044996560311296
0.5743084953560849 13.057858335105838 44735.46096221035 10.738810929723893 0.23372926210962328
0.5943630679132275 13.039550475820612 38333.95282204627 11.262517245895818 0.23704975234076925
0.6148001196704239 13.024516015394326 32906.51755407962 11.808652738908178 0.24041312731844466
0.6356007669458037 13.012436920432306 28298.438632077392 12.378196231799999 0.24382101966597314
0.656771129503973 13.003029234530075 24374.79340154681 12.97184538909959 0.2472714785296269
0.678302105731383 12.996009652557902 21031.632960162457 13.590909590619416 0.2507690955762137
0.7001892006185411 12.991061302157956 18175.200961224957 14.236594549329316 0.2543166017156088
0.7224216164074282 12.987998087887881 15732.792635203166 14.910089715234145 0.2579159811138758
0.7450079029114554 12.986655472607008 13636.519723669446 15.61243512815761 0.2615672355435628
0.7679274133448789 12.986759516176324 11837.913305551045 16.344876069448564 0.26527205266203113
0.7911709662948668 12.988130469722016 10291.078158263199 17.10903820960612 0.2690352237036488
0.814743846286973 12.990657954877518 8958.13141108209 17.906376280372413 0.27285918062842457
0.8386245013602989 12.994123674897017 7809.303355951846 18.7382661206761 0.276745100321246
0.8628023544076505 12.99839732169187 6815.932825832615 19.606030824365124 0.2806932744243347
0.8872756684772751 13.003340628541793 5956.549334281616 20.51176594785768 0.2847101547965074
0.9120364595094501 13.008840393752473 5181.425314627155 21.457265193760104 0.2887987539410584
0.9370548026407419 13.014731284969168 4566.201965278189 22.444025943056484 0.2929591018435871
0.9623321424819016 13.020925230285224 4005.2421858758094 23.47404655223413 0.29719478318312254
0.9878557325431564 13.02731868308425 3517.3245666133785 24.5497616558166 0.30151200191930244
1.0135964248184866 13.033780093720406 3092.459423180319 25.673128937050404 0.3059125058965049
1.0395583640089918 13.040234522170778 2722.076257321003 26.8460781011404 0.31039732376440543
1.0657082884757247 13.046560759447965 2398.8771333915447 28.071720210744033 0.31497530205419316
1.0920385026241415 13.052692836977322 2116.2920246070826 29.352127349278277 0.3196470062229062
1.1185352825541839 13.05852603002053 1869.072140973503 30.69001993490544 0.3244168819619854
1.1451662242340857 13.063985521134011 1652.4856490236161 32.088833770731355 0.32929323192763527
1.1719260393091089 13.068997895631846 1462.5236031594698 33.55046906024047 0.3342734903198751
1.198780375332765 13.073455685626286 1295.7629504041931 35.079486507861 0.3393713502854175
1.2257247632666288 13.077326064632427 1149.3656099805228 36.67793229533188 0.3445837156891272
1.2527194223790878 13.080492093252548 1020.4398151053787 38.35082024018082 0.3499247924577712
1.2797586013787317 13.082929910905737 906.9001404234543 40.100410749989436 0.35539129056787366
1.3068024064950658 13.084516436606851 806.9756296134954 41.93217909872888 0.360997794617087
1.3338387505189413 13.085234922621112 718.7916378822157 43.84956331008668 0.366745985165108
1.3608457202987856 13.085035303298671 638.2223650510645 45.857317119825105 0.37264398330187
1.3877746830589492 13.083779302552797 571.9470431120108 47.96073918996989 0.3787015597595023
1.4146316637802312 13.081492745117542 510.9544387931626 50.164544063873585 0.3849241572090775
1.4413538031081787 13.078040830869034 457.0115021656667 52.4740283007409 0.3913191510179104
1.4679466222527373 13.073449502444753 409.11430775505045 54.895566964091394 0.3978980258316872
1.4943522227229944 13.06759119912644 366.6178852697665 57.43534721331098 0.4046698381313602
1.5205664997786645 13.060444563095592 328.92790484354606 60.09999407439145 0.4116443541122559
1.5465492888922745 13.051962931775451 295.3684339043902 62.89660985496266 0.418832108113865
1.5722647936487661 13.042089925073173 265.5330707875214 65.83281733269042 0.42624446581909153
1.5976890594704465 13.030765648584728 238.99132554610145 68.91680710004968 0.4338936927812193
1.6227764550697623 13.017950476258056 215.29963751117563 72.15738949609455 0.4417930289052175
1.6475278252807388 13.00361669613825 194.15266224728933 75.56405160982925 0.4499567695857387
1.6718766219589931 12.987688541521624 175.27998054915767 79.14677576216945 0.4583993347457109
1.69581411626111 12.970147752914752 158.41139266080953 82.91565223916008 0.46713358155392687
1.7192788098188851 12.95090843177251 143.32530391774233 86.88345990025442 0.47618125147255874
1.7422815865834749 12.930010567682677 129.81648358645268 91.06183335789757 0.48555692610138146
1.7647618295406227 12.907367685445324 117.71231715583332 95.46473258575888 0.4952820243616169
1.7866897881859016 12.88294087776486 106.85328505203832 100.10594786353064 0.505374565145104
1.8080287782784112 12.856693180952506 97.11199741231152 105.00193363499898 0.5158599870446506
1.8287408755434198 12.828567464678557 88.35494015729017 110.1692227225674 0.5267608155233218
1.848821379506476 12.798609616657453 80.48853574288262 115.6253677317034 0.5381001567835019
1.868208832799882 12.766709503758344 73.40113706760349 121.39070555074741 0.5499078389047005
1.8868816261561465 12.732870471621132 67.03110819404752 127.4865798861436 0.562213391430778
1.9048060011089338 12.697068748637541 61.27691979498303 133.9354945494253 0.5750463603142574
1.9219502537241395 12.659260471737143 56.09110572497083 140.76296261470787 0.5884424676253387
1.9382662615460708 12.619381813432973 51.40649780521032 147.99672961539275 0.6024402544707277
1.9537661672546318 12.577550682787392 47.176984279753505 155.66537886845435 0.617075806788948
1.96838586565098 12.533634069650477 43.35158700747142 163.80244295651815 0.6323963649088963
1.9821036631704967 12.487647237662706 39.89035244797079 172.4415782463348 0.6484431377573825
1.9948980721637508 12.439581971902461 36.757169887645745 181.62224736695467 0.6652699208806865
2.0067296393877894 12.389418271779098 33.91475621335604 191.38633300901608 0.6829307761957765
2.017588967600316 12.337173560909038 31.336651826950494 201.7798418044205 0.7014849011405979
2.0274286355240356 12.282801183087964 28.999552207535043 212.85280012690055 0.7209952837637359
2.0362440334996332 12.226348654448472 26.877407969718046 224.66044701324134 0.7415315094933972
2.043994070873211 12.167768567056063 24.949388055086384 237.26412639354442 0.7631713774089675
2.050653273266782 12.1070796702365 23.189576943940274 250.73052633427542 0.7859969863998926
2.0562359270664823 12.044346460922101 21.599684416536213 265.132686727695 0.8100963957704674
2.060689512599587 11.979510204282123 20.147392906727404 280.55251982454934 0.8355699649045443
2.0639995269049694 11.91262929547387 18.826385147884768 297.07940833400136 0.8625236514803282
2.066167304749867 11.843743322652907 17.623590771628837 314.81378501947813 0.8910782574873438
2.0671654877016588 11.7728657323852 16.52720045785167 333.86509625020744 0.9213599337097189
