M[M_sun], R[km], Lambda[1], P_c[MeV/fm^3], rho_c[fm^-3]
0.24162668629717493 15.618656898711224 2160425.4255784233 3.5677272577965504 0.1711233750220791
0.25364491862532895 15.27725520236399 1723049.6583792814 3.7848537359000676 0.17388859846582708
0.26604322859904567 14.981197022153225 1382851.6485228825 4.011473234679687 0.17666752818090975
0.2788208905253887 14.723389984544276 1116346.8421359267 4.247840785677965 0.17945881987332274
0.2919777063858079 14.498273860511816 905717.0005387674 4.494582045267641 0.18226904836667476
0.3055149532528726 14.30111017935376 738517.6997494872 4.751854406874864 0.18509395493321146
0.31943426479038767 14.127989211677164 604992.054644727 5.020337295604296 0.18794009542043272
0.3337346455201572 13.97579471076092 497565.22796001914 5.300258655344393 0.19080416877906287
0.3484182702678176 13.841881866438966 410916.3664733999 5.592342717383679 0.1936923826415744
0.3634838714229924 13.723843225378488 340559.55822874955 5.89676233291678 0.19659990271025862
0.37893962584577345 13.61985923989176 279318.3558443145 6.214379361252688 0.1995343626887185
0.3947751371261148 13.528325300222726 236340.98213672102 6.545446476107906 0.20249185622395144
0.4110031458386798 13.447736348978298 197812.3126855641 6.8906756596675836 0.2054762559954133
0.42761346787091536 13.376944677052206 166025.9540669393 7.250767980321364 0.20849056000490224
0.44461240772035526 13.314808848431142 139749.41341235847 7.625975751914662 0.21153020769880268
0.46199528046081373 13.260458082216765 117929.70120206565 8.017261396546624 0.21460156735636118
0.4797657567237931 13.213060057281048 99775.19609040311 8.42532411610596 0.21770618840489037
0.4979259756492348 13.171896436745383 84610.17787320788 8.850595910617562 0.22084140932329482
0.5164692300106576 13.136308925062387 71912.62354343919 9.293967948280482 0.22401088887931808
0.5353903466450795 13.105769554880526 61250.57973482058 9.756317199894047 0.2272174266826648
0.5547009361037667 13.079755529216467 52281.571536042175 10.238446389964324 0.23046227992834173
0.5743871756977124 13.05779473342787 44708.93121776859 10.74083585725494 0.23374226277161664
0.5944480632041066 13.039469846330666 38310.32798382935 11.264734256056812 0.23706360426037482
0.6148889894354346 13.0244639670427 32886.93898192882 11.811074930583604 0.24042785828516883
0.6356974750709657 13.01242086481632 28276.721040242828 12.380837521159233 0.24383665893626066
0.6568724429380732 13.002987263830846 24358.142339100727 12.974693646802216 0.24728775800267205
0.6784082702582691 12.995968520025428 21016.33173849352 13.594005266550594 0.25078633147041723
0.7003017580882719 12.991046285628407 18162.436537038277 14.239954244390994 0.2543348282252884
0.7225360402311575 12.988028506748043 15720.15347393625 14.913731097067371 0.25793523447225736
0.7451324619369952 12.986638266551642 13625.986147544909 15.616341467537545 0.2615872021592957
0.7680579231144545 12.9867546264462 11828.723808391214 16.34910027192676 0.26529310925191835
0.7913075917555473 12.988142697297175 10283.541315663355 17.1136014787066 0.2690574133360319
0.8148852519385184 12.990688077631631 8950.480664768085 17.911301225516834 0.2728825491409844
0.8387737075160462 12.994149671954245 7802.7805149046335 18.743530896590386 0.27676928924250394
0.8629593600689293 12.998426737874922 6809.6742523874655 19.611703893564478 0.2807187259080147
0.8874443367858785 13.003379842979665 5951.227862836522 20.517874618789758 0.2847369239396962
0.9122058099615584 13.00887143159045 5207.686609811659 21.463838645063007 0.2888268995559515
0.9372307092151384 13.014771744152991 4562.39230146236 22.451036790207183 0.29298822091128
0.9625190829792142 13.020979974008291 4001.6692812225224 23.481582786780642 0.29722539007084936
0.9880443997074576 13.027363519876971 3514.059980374999 24.55785875552666 0.3015441678525768
1.013790438888709 13.033828267317416 3089.862932081835 25.681755556598823 0.3059457976827354
1.0397602189260007 13.040281156689225 2719.4194116676945 26.85533971572076 0.3104323124765553
1.0659165288192851 13.046619335957187 2396.506778611825 28.081660180337494 0.31501207432394945
1.092250310423159 13.052739883165508 2113.9633403537914 29.362710441662937 0.3196850988574391
1.118755542944048 13.058575512719734 1866.938969674821 30.701372517710052 0.32445692893345773
1.1453919142590683 13.064033083954136 1650.7179569979019 32.10091878787681 0.3293347548562207
1.1721584196630075 13.069032225665143 1460.9848108941524 33.563428286222575 0.3343171642475869
1.1990189840482663 13.07349132879633 1294.4748626708374 35.093381116939014 0.33941729599080145
1.2259692983229245 13.077354560036166 1148.1056178495778 36.692721962144205 0.3446314248648726
1.2529690153806914 13.080511287402723 1019.3840076315569 38.36658136897243 0.34997446724083325
1.2800158135507789 13.082952054081996 905.9371326318668 40.11728956951244 0.35544350799662855
1.3070700600396223 13.08455037289347 806.1080585492368 41.950151606714364 0.36105212823155014
1.3341040579382881 13.085236347274032 717.9479092673513 43.868831037069334 0.36680325881423503
1.3611142733944166 13.08502911006911 640.059705266803 45.877839688616625 0.37270366014413553
1.3880555878028693 13.083779424349814 571.2720498167868 47.982604270939326 0.378763794838143
1.414902041458668 13.081449559127202 510.3738177124124 50.18799145067378 0.3849898593708471
1.44163530940704 13.078000248443159 456.4706595391262 52.49902076645417 0.39138777096489136
1.4682314812344341 13.073393817078971 408.6557578663264 54.922215188969 0.397969758060479
1.4946433456053865 13.06751589986203 366.191801063961 57.463770843656384 0.40474489217551546
1.5208564624598329 13.060360533432414 328.5494746837035 60.130322525396835 0.41172295577728524
1.5468421228393003 13.051859848915317 295.0283594919959 62.92898319366147 0.418914500834648
1.572559756615211 13.041965747286948 265.19671355177474 65.86738724994865 0.4263309121528284
1.5979743212211033 13.030619160648644 238.68157460442671 68.9537379816051 0.4339844760506043
1.6230827107018928 13.017800158952728 215.02689316572656 72.19685960388209 0.4418884550082615
1.647824469372533 13.003432216691264 193.90348129200947 75.60625438622539 0.4500571689906504
1.672172804459633 12.98748325923038 175.0722270243764 79.19170086310623 0.4585041444922199
1.6961079679864897 12.969920049261976 158.21132844277182 83.05050576539634 0.4673096808702835
1.701300351699015 12.94998847552386 152.92708411996625 88.77006726832704 2.1239448067889124
