M[M_sun], R[km], Lambda[1], P_c[MeV/fm^3], rho_c[fm^-3]
0.24162668629717493 15.618656898711224 2160425.4255784233 3.5677272577965504 0.1711233750220791
0.25364365966982144 15.277280257195235 1723293.9474123546 3.784815264040475 0.17388811893265668
0.2660394742233542 14.981267987765287 1383038.6742225243 4.011392358611481 0.17666655084135527
0.2788140800126796 14.723527662000876 1116445.6911672612 4.247714768680832 0.17945735826605955
0.2919676256371866 14.498480333148741 905952.3976704072 4.494407579983774 0.18226710565524765
0.30550519212900956 14.301204330539074 738684.124695732 4.751625568735492 0.1850914830445621
0.31941907491075494 14.128171396293197 605122.9639235544 5.020052398329187 0.1879371395012432
0.3337175161960738 13.97596973844699 497700.41066269414 5.299910197596445 0.190800660387737
0.3483975765396041 13.84205556178112 411022.9920197928 5.59192982853396 0.19368838782837156
0.3634594530245593 13.724026004851222 340671.3431251695 5.896275735935728 0.19659533248843766
0.37891271726537284 13.620020090110811 283327.02282610774 6.213813166755097 0.199529199676643
0.3947445378323144 13.528494414747136 236421.12094759668 6.54480127133541 0.2024861986497256
0.41096864214869067 13.447918718348566 197882.62722452433 6.889938987804842 0.20546998218869786
0.42757662611894104 13.377070294936997 166093.86068114912 7.249932927496625 0.20848365182688888
0.44457121980005543 13.314960925835598 139810.37846418042 7.6250446255619115 0.21152279533432253
0.46195161929675166 13.260587051739376 117986.18345915865 8.01621795406113 0.21459349548514886
0.47971532120037225 13.213171804565475 99814.76007789066 8.424160219649933 0.21769743753063844
0.49787163748239627 13.172022369914677 84650.03553110667 8.849315851192342 0.22083214114612892
0.5164100055059327 13.13641634581868 71943.4626222029 9.292551008521443 0.22400091353507856
0.5353278697320483 13.105863644859845 61281.83323000648 9.754753771109089 0.2272067226216319
0.5546333446567133 13.079825752731546 52303.19976420617 10.236733630963101 0.23045091918778401
0.5743146510135275 13.057866183488386 44734.76921879584 10.738966538816474 0.2337302611681993
0.5943711712298849 13.039531142092509 38333.39904561596 11.262687614884983 0.2370508168092966
0.614806927828496 13.024510758426983 32905.408584000405 11.808838874211535 0.24041425933164898
0.6356087316315163 13.012464411168988 28295.08308309959 12.378399202621265 0.2438222214712669
0.6567790323192808 13.003025383473657 24373.678443933753 12.972064263367333 0.2472727295251877
0.678310617554182 12.995981730221743 21030.35260244307 13.59114747630564 0.2507704200599812
0.7001972782229294 12.991070183236497 18174.178071843646 14.236852721885066 0.2543180023143239
0.722430488166233 12.988005231483452 15731.156966429617 14.910369532058324 0.25791746061090304
0.745017798222185 12.986645443148928 13635.792555241243 15.612735303775569 0.26156876984220745
0.7679366997078723 12.98675014919811 11837.953607344147 16.345200668732243 0.26527367070804797
0.7911807239870523 12.98813991177557 10290.30191040926 17.109388861582417 0.2690369288054688
0.8147532452586909 12.990671484398883 8957.422166288556 17.906754722067724 0.27286097630720896
0.8386347073089574 12.994134350751887 7808.158071560527 18.738670673581183 0.27674695903252355
0.8628153288380378 12.998392360670135 6815.417977072897 19.606466748457436 0.280695230140814
0.8872899204230547 13.003345367965753 5956.230511420433 20.51223534113479 0.28471221175062833
0.9120494431773304 13.008837307716153 5211.977963784102 21.457770297881574 0.288800916650635
0.9370693873785079 13.014736105343056 4565.95874442859 22.44456465399456 0.29296133934212837
0.962345619619201 13.020932225091467 4005.0859581418827 23.474625630148523 0.2971971349905937
0.9878700595653872 13.02732281307618 3517.0290850912747 24.550383826240562 0.3015144735070387
1.0136113741923385 13.033787526605964 3092.3055378855875 25.67379179171654 0.30591506398032015
1.0395746922991889 13.04024043824653 2721.8190390718146 26.84678974321579 0.31040001222002117
1.0657241261447108 13.046562465012336 2398.6369913009216 28.072483971227065 0.3149781275363284
1.0920551341155351 13.052698079536388 2116.109830867158 29.352940521358768 0.31964993314310575
1.1185522109114967 13.058530528272978 1868.9056747028324 30.690892226553643 0.3244199590272976
1.1451820742143555 13.063990131717393 1652.3918697067802 32.08976233507543 0.32929642238326157
1.171943892174734 13.068997923872747 1462.2980759288805 33.551464788655274 0.33427684602729685
1.198799170196366 13.073458662911788 1295.6402581116104 35.08055409968551 0.33937488052215636
1.2257431943231003 13.077330860706946 1149.260032666535 36.679068652628246 0.34458738140186096
1.2527384442860159 13.080490090871004 1020.3483110741028 38.352038436590234 0.349928651436941
1.2797787782280996 13.082934575227446 906.8365081894198 40.101707610058966 0.35539530261967583
1.3068228630671936 13.084518546762668 806.9085130549275 41.93355998283565 0.3610019692389448
1.3338586394877965 13.085240814356661 718.7237369078874 43.851043699276964 0.36675038564738244
1.3608663483029184 13.085036872564423 640.7310642025466 45.858893912348776 0.3726485684003378
1.3877957613127203 13.083778502285135 571.9027181156329 47.962419120352806 0.3787063413836654
1.4146529766008802 13.081488743119346 510.9115424253799 50.16634555187675 0.3849292051769905
1.4413749823342323 13.078038691951095 456.9689413436114 52.475948486711935 0.3913244231291554
1.4679697942917478 13.07344371191574 409.1071053352521 54.89761434984494 0.39790353702592146
1.494378303336752 13.067582659713286 366.61408507941184 57.43753098929249 0.40467560450310613
1.5205890114163074 13.060437891724694 328.89749380105616 60.10232418132953 0.41165039300573575
1.5465717713270632 13.05195505843066 295.341924449591 62.899097051672925 0.4188384382272335
1.5722885051636237 13.042078778379732 265.5166445332558 65.83547327071553 0.4262511073190751
1.5977117039813546 13.03075362915143 238.97038487034212 68.91964440590479 0.4339006674292895
1.6227988226971666 13.017939377970302 215.28184514736574 72.1604218619799 0.4418003601965583
1.6475509248850086 13.003601378381305 194.1377537853271 75.56729389378042 0.44996448290242186
1.6718995840178539 12.987672721875382 175.26766627494962 79.15022717014233 0.45840738684102494
1.695837017901303 12.970130677903386 158.39676952661588 82.91934644234834 0.46714207082209425
1.7193175260738083 12.950921572102205 143.3058977640021 86.887415913879 0.47619020989702265
1.7423036445001014 12.929988127395479 129.80348797362467 91.06605282867805 0.4855663128707367
1.7647838737504116 12.907345854382744 117.70149065010654 95.46925615789972 0.4952919500889585
1.7867119257005812 12.882912947680172 106.849744858503 100.1107794757273 0.5053849915546108
1.8080503254913483 12.85666558008175 97.10349799172566 105.00709833960356 0.5158709543057042
1.828762200474061 12.828535899925987 88.35067462810044 110.17474784551773 0.5267723670856853
1.8488436718493944 12.798575929076959 80.48288013942455 115.6313056745425 0.5381124225243809
1.8682296817881021 12.766676190024862 73.39622568246476 121.39706711649964 0.5499207887213183
1.8869009452172436 12.73283353260197 67.0231266683898 127.49340078798694 0.5622270809263527
1.9048241297140782 12.697025549605378 61.267978390987395 133.94278879586173 0.5750607614215663
1.9219686593677818 12.659216726638471 56.08529028920798 140.77079715671343 0.5884577322924912
1.9382839076931615 12.619336056038867 51.40251946921221 148.00515136549228 0.6024564541260523
1.9537834961376177 12.577500964643086 47.17199117713568 155.67441161644766 0.6170929247505862
1.968401981645241 12.53358489689686 43.34831865736566 163.81214143543409 0.6324144817481113
1.9821194513835279 12.487590539203445 39.88719454465642 172.4520317457265 0.6484624390010472
1.9949121534026113 12.439523375436536 36.752517118344684 181.63349377851063 0.665290406375276
2.0067505431050554 12.38937260808616 33.909865975540804 191.3984453580424 0.6829525507108869
2.01760099712237 12.337109243639956 31.333445500677005 201.79290064587587 0.7015080792960326
2.027440726377623 12.282733105208113 28.997269542866377 212.8668614918607 0.721019883280469
2.0362517518627303 12.22627905330257 26.87376376709235 224.6756410372938 0.7415577727256903
2.044003143109808 12.1676936661567 24.947227889508543 237.28052709141434 0.7631993421054295
2.050666038671623 12.106999185355379 23.19152481930864 250.7482799101537 0.7860269025418324
2.0562424190247506 12.04426406108726 21.596975096948658 265.1519056543808 0.8101283771810687
2.0606931245162428 11.979425044552325 20.144875498496063 280.57330487425116 0.8356040572237332
2.0640038680294976 11.912539363660413 18.82512866756601 297.1019584746067 0.8625601867486682
2.0661696146059367 11.843650301056945 17.621686257941896 314.8382813077439 0.8911174712268082
2.06716632044433 11.772770803446807 16.526010900350318 333.8917002342198 0.9214019525773552
