M[M_sun], R[km], Lambda[1], P_c[MeV/fm^3], rho_c[fm^-3]
0.24162668629717493 15.618656898711224 2160425.4255784233 3.5677272577965504 0.1711233750220791
0.2536414974634138 15.277351789207408 1723319.585717902 3.784793805752417 0.17388785146544786
0.2660373250740667 14.98129998123789 1383082.3204210754 4.0113472492122195 0.17666600572088692
0.27881070029149657 14.723592251366162 1116524.2396182097 4.247644482260118 0.17945654304949865
0.29196349347432976 14.498501256811638 905989.3035624939 4.494310272390748 0.1822660221126154
0.30549640137475786 14.301355142872422 738772.9740346682 4.7514979361815035 0.18509010436938864
0.31941113282253675 14.12825841215446 605182.435305496 5.01989350087319 0.18793549087880845
0.33370682116968803 13.97607169925559 497757.8824637708 5.2997158522105146 0.19079870365217796
0.34838617476717804 13.842151173055129 411080.78910819296 5.591699550225555 0.19368615982239035
0.3634460858397878 13.724117238436131 340726.65113573807 5.896004351554265 0.1965927835888959
0.37889824194827726 13.620114393984919 283367.27520856174 6.213497392528005 0.19952632019590885
0.39472729073188617 13.52857576445247 236466.6956967071 6.544441435355731 0.20248304337429843
0.4109497117464499 13.44800581992112 197921.29755049758 6.88952814396448 0.2054664832701494
0.4275553582346766 13.37715948570225 166126.8144959742 7.249467220935733 0.20847979915586098
0.44454783001006687 13.315019203375714 139847.14188722678 7.624525343664458 0.21151866151652163
0.4619264198287342 13.260655908073876 118013.15353026074 8.015636039988308 0.21458899390933825
0.47968791877871036 13.213249771818129 99846.96600246255 8.423511136269884 0.21769255733102238
0.4978412781979108 13.172073466593494 84673.6755917094 8.848601991955544 0.2208269725002459
0.5163766707310955 13.136481952134412 71963.86079637772 9.291760821862747 0.22399535057173894
0.5352919713896747 13.105908785472582 61299.15540373503 9.753881900018715 0.22720075333063897
0.5545952797826366 13.079879296643162 52321.612955452205 10.23577439294636 0.23044453103679247
0.5742730261358218 13.057929525666117 44748.399256579134 10.737924101849407 0.2337235683999642
0.5943272532527367 13.039576590925313 38010.899198714906 11.26154630353422 0.2370436858753235
0.6147607199493752 13.024540337362952 32915.96977956866 11.807591947010941 0.24040667593381726
0.6355593973603428 13.012469890619995 28307.67904917845 12.377039497558245 0.2438141705566946
0.6567277945575344 13.003040842996667 24381.769506995504 12.970598024366248 0.24726434910431708
0.6782557259648925 12.996012468626857 21038.17620753043 13.589553884322797 0.25076154736676953
0.7001392522425247 12.991068629937715 18181.509580853006 14.235123233450281 0.2543086197551575
0.7223691393336293 12.988002096902445 15737.056498968124 14.908495054813732 0.25790754954312134
0.7449535525891287 12.986657465604205 13641.286443424666 15.610724448856455 0.2615584916857137
0.767869468237786 12.986756900002085 11841.79065034554 16.343026207632843 0.2652628315648411
0.791110847158799 12.988122521367467 10294.710777572582 17.107039882584726 0.2690255065160341
0.8146814691095223 12.990650691579205 8961.370961790777 17.904219590080817 0.2728489472872017
0.8385587075545621 12.994106684559569 7811.392877061914 18.735960632336564 0.2767345077952175
0.8627362255956262 12.998379073131316 6818.59932223105 19.603546564608124 0.2806821291175457
0.8872054446511568 13.00332764616331 5959.471623321542 20.509090961841643 0.284698432593022
0.911962951877032 13.008820778835547 5214.319606935992 21.454386708081767 0.2887864290989558
0.9369779878427735 13.014706007282477 4568.050399446143 22.440955947507646 0.2929463508298676
0.9622529105231689 13.020910184446358 4006.973234254931 23.4707465255752 0.29718138079432715
0.987773110601684 13.02730004156862 3518.7039020341676 24.54621606762766 0.3014979169805976
1.0135121221202399 13.033763710129286 3094.1725766108793 25.669351510578277 0.30589792808025773
1.0394697965243926 13.04021605530711 2723.26045023368 26.84202266300574 0.31038200304939356
1.0656207175650596 13.046544020861004 2399.7601097055817 28.067367780752686 0.3149592005230736
1.0919454807934956 13.052662159789199 2117.171496381423 29.34749335161076 0.3196303266765922
1.1184388134419225 13.058506575688757 1869.8863503162481 30.68504905255226 0.3243993468523795
1.145064479396373 13.063964119991592 1653.1019026890567 32.08354222578982 0.32927505070041235
1.171824551946239 13.068978623892804 1463.1757395028114 33.544794793177715 0.33425436745483217
1.1986761758843922 13.073443854657885 1296.332569691953 35.07340274220647 0.33935123292171054
1.225618068792743 13.077306841312529 1149.83983059776 36.671456683493304 0.34456282636773916
1.2526104045208313 13.080473543564501 1020.9323588105144 38.34387828917201 0.34990280187880224
1.2796481620684201 13.082921012336564 907.381202772404 40.09302055369073 0.3553684277694305
1.3066894746083193 13.08451599988848 807.3676497547842 41.92431011420405 0.36097400548472247
1.3337224632664708 13.085234805970886 719.161915075852 43.84112732850032 0.36672090906506494
1.3607269553827475 13.0850388448881 641.1068965517059 45.84833181477067 0.37261785525533314
1.3876552956317803 13.083789541628043 572.2455252986128 47.95116618932144 0.37867431190942497
1.414509048529579 13.081507677015265 511.20680558559263 50.154278416182834 0.3848953917329503
1.4412301693449059 13.078061789287325 457.2290618039581 52.46308629983698 0.3912891083830417
1.4678235298762854 13.073470437002905 409.34262911208265 54.883900168940606 0.3978666209173687
1.4942294374912313 13.06761680328505 366.8334135401258 57.42290325953174 0.4046369792373673
1.5204399945430518 13.060482759649002 329.10283293368906 60.08671632302997 0.41160994241860654
1.5464219178498553 13.052008731230284 295.5309905499618 62.882437006226766 0.4187960370870407
1.5721368125482236 13.042141882739406 265.6799589981504 65.81768300074111 0.4262066205589828
1.5975593853437495 13.03082897687585 239.11801718562722 68.90063934447288 0.4338539493023728
1.6226473026132924 13.018024733853647 215.41364901474975 72.14011030513912 0.44175125334520365
1.6473974172452772 13.00369783522699 194.25744299769713 75.54557632988717 0.4499128173325895
1.6717474585366887 12.98777915041379 175.3713509092411 79.12710891581 0.4583534522181576
1.6956857430545533 12.970249015671733 158.49258246837053 82.89460198742975 0.46708520813675886
1.7191575149277354 12.951048245074492 143.40843727965046 86.86091790603214 0.4761302049465174
1.7421542611962135 12.930133921038824 129.8931704097392 91.03779023734664 0.4855034390081102
1.764639594437883 12.907509954571841 117.77342603302829 95.43895677645902 0.4952254664805545
1.7865650010406007 12.883087050213975 106.91359547657748 100.07841692340754 0.5053151545707144
1.8079057384189348 12.856852314329851 97.16735132861733 104.97250483297637 0.5157974949218705
1.8286200244441588 12.828738637013469 88.4087382541453 110.13765046961329 0.5266946596855876
1.8487023988247997 12.7987949773616 80.53401436831732 115.59153330024245 0.5380302665234682
1.8680923058082566 12.766913273811557 73.44393763495688 121.3544574858489 0.549834051128001
1.886768042493465 12.733088025154409 67.0641440112631 127.44771472485107 0.5621353893621744
1.9046953211018594 12.69729516083166 61.30850869370623 133.89393247869674 0.5749643038817307
1.9218428872764126 12.6595084051213 56.12208617270521 140.7183222142482 0.5883554911493569
1.9381641345551008 12.619642933145995 51.435744926761004 147.9487436243352 0.6023479510294766
1.9536682395864735 12.577837791366228 47.20518187251364 155.61391175104137 0.6169782714495193
1.968292129851706 12.533929873142093 43.37582858732162 163.74709269736223 0.6322928333472131
1.9820169345819885 12.487964000372724 39.912890542239836 172.38201658476066 0.6483331636616231
1.9948134153703394 12.439914640684092 36.77547590162582 181.55816823061863 0.6651531998453428
2.006653276450425 12.38977013993378 33.93241717675306 191.31732038630753 0.6828067113762514
2.01751701065465 12.33754388894689 31.35495921803276 201.7054367929979 0.7013528395847719
2.02736450869758 12.283192787900418 29.016082930678092 212.77268352340127 0.720855124559138
2.0361850701804207 12.226757411539815 26.89248642541654 224.57387748723997 0.7413818720067757
2.043941614147366 12.168196536190296 24.96280582837266 237.17068230105625 0.7630120466473546
2.050613376536127 12.10752586328173 23.206161049161697 250.62932994505036 0.7858263921619798
2.0561931152319106 12.044792478730079 21.6104131262541 265.0231870884833 0.8099141820090242
2.060660073022674 11.979999365173407 20.1581842023607 280.434087167019 0.8353756901884105
2.0639854899205408 11.913151323278573 18.836390513067865 296.95093092518965 0.8623154950573279
2.066154873882241 11.844272892450945 17.632181041920177 314.6742206714948 0.8908548424164171
2.067162672575844 11.773416476218602 16.535354330333913 333.71352472341954 0.9211205385906056
