M[M_sun], R[km], Lambda[1], P_c[MeV/fm^3], rho_c[fm^-3]
0.24162668629717493 15.618656898711224 2160425.4255784233 3.5677272577965504 0.1711233750220791
0.2536449660316631 15.277292253574249 1723264.392119264 3.7848569171682422 0.17388863811880018
0.26604351788899977 14.981183921691374 1382861.7300168823 4.01147992243728 0.17666760899851341
0.27882177682716763 14.723386133266942 1093856.7923599344 4.247851206282003 0.17945894073662605
0.2919785136665867 14.498271729381425 905749.5563891223 4.494596472265955 0.18226920901464932
0.3055158741081456 14.301093080292278 738540.3843032408 4.751873330250223 0.18509415934178114
0.31943548778135505 14.127954164044821 605001.8383420177 5.020360854859236 0.18794033985679576
0.33373647175901644 13.975770433011585 497561.3159569116 5.300287470869441 0.1908044589035865
0.34841998187318496 13.841867412792638 410907.4072823832 5.592376861235127 0.1936927129927298
0.3634858892640721 13.723821309767349 340562.170351395 5.896802572349273 0.19660028064752416
0.37894176366601334 13.61985645003771 283227.3084968815 6.214426183380028 0.19953478965014232
0.3947777577796258 13.52832342092989 236335.6260472595 6.5454998324273035 0.20249232408679171
0.4110060026241301 13.447732317339524 197798.4542546745 6.890736580436351 0.20547677482224455
0.4276172433499096 13.376923124497457 166020.70071348298 7.250837037403584 0.20849113129644564
0.44461610965918835 13.314812797718757 139750.33110719488 7.626052754545573 0.21153082068925727
0.46199980091680476 13.260448709738963 117932.15693936365 8.017347688121381 0.21460223489145566
0.4797696390087959 13.213047557078918 99764.81933691657 8.425420369742072 0.21770691209767382
0.49793024041755884 13.171886001509659 84606.65695829615 8.850701771496677 0.2208421758012905
0.516473484335926 13.13630619894967 71909.20596691058 9.29408512993681 0.22401171384548407
0.5353955296529708 13.105757193777782 61245.21425044989 9.75644649712423 0.22721831191994366
0.5547060524272317 13.07973431519025 52276.935420201815 10.238587262304177 0.23046320950780205
0.574392621595922 13.057794289800668 44707.808210110314 10.740990453781215 0.23374325532920334
0.594453621388213 13.03947108853201 38309.496747815785 11.264903518648577 0.2370646618161112
0.6148956654694236 13.02447785243865 32884.31568199536 11.811259859516454 0.24042898296162768
0.6357045341316028 13.012396329108727 28275.434554420935 12.381039179128383 0.24383785296805963
0.656879477074733 13.002987577849654 24356.136475866744 12.974911107739103 0.24728900092021325
0.6784162193148304 12.995954029267196 21014.925062958042 13.594241619214795 0.2507876474187289
0.7003102441474571 12.991047201447644 18161.160000129832 14.240210756524279 0.2543362198161306
0.7225493834407235 12.988002011911481 15719.05130605701 14.914009117885346 0.2579367044731227
0.745141936302199 12.986640979081393 13625.241204863327 15.616639719689642 0.26158872662645877
0.7680679269188053 12.986761875205975 11828.102845281444 16.349422795443015 0.2652947169507552
0.7913175650342118 12.988142244537118 10282.46120976093 17.113949892863523 0.2690591075560941
0.8148967104148924 12.990678561740346 8950.010325068522 17.91167725697199 0.2728843333833516
0.8387861843827545 12.99415210225084 7802.204048181161 18.743932877264 0.2767711361357088
0.8629709306440991 12.998424206320957 6809.1378961665905 19.61213705166878 0.2807206692152502
0.8874570076707263 13.003381126245205 5951.02799304158 20.518341039892174 0.2847389678692867
0.912218786727018 13.008885775819687 5207.376005504375 21.464340557578975 0.28882904859999753
0.9372444692938113 13.014770922473657 4562.099536428708 22.451572102974264 0.2929904442957536
0.9625319254234161 13.020988462082038 4001.3837210806514 23.482158219637476 0.2972277270746587
0.9880587838137767 13.027370309637574 3513.7568440475825 24.5584770180309 0.3015466239160032
1.0138061295367742 13.033826881406393 3089.7123974553165 25.6824142550374 0.305948339726868
1.0397764521211803 13.040288205199474 2719.2745443391022 26.856046905392624 0.31043498411179227
1.0659317489701052 13.046619044039904 2396.385453646807 28.082419172879348 0.315014882167397
1.0922687698709626 13.052740222669948 2113.7638347915167 29.36351854643337 0.31968800753843385
1.1187715895249006 13.058579477384173 1866.7597331067727 30.70223938590174 0.3244599868671756
1.1454081337246524 13.06404083961471 1650.5735237774672 32.10184158949182 0.3293379255116776
1.1721765832775526 13.069034488782236 1460.8504871595546 33.56441784936924 0.3343204991774194
1.199036589512253 13.073492438598674 1294.352112784622 35.094442114044085 0.33942080442059097
1.225988176467309 13.077354485668364 1148.0225784518148 36.69385131341626 0.3446350679772564
1.2529874990332694 13.08051889112898 1019.2092279892973 38.36778365924265 0.34997825313763475
1.280035097893668 13.082953655474496 905.8604605804303 40.118578469135684 0.3554474954214693
1.3070892041611426 13.084551457228976 806.0226842129242 41.951524031746246 0.361056277280343
1.3341238111786016 13.085239798117309 717.8778914864292 43.87030238055849 0.3668076324080076
1.3611352580463256 13.085026840575749 640.0093869854961 45.87940686661764 0.3727082172848774
1.3880759037322306 13.083779130771484 571.2124540043264 47.98427397987351 0.3787685473687635
1.4149236325430177 13.081443091155078 510.33484395389746 50.18978200680084 0.3849948767064385
1.4416568443808047 13.077997052903735 456.40825015102877 52.50092932633034 0.3913930111552358
1.4682534093803696 13.073389295746528 408.60897856284646 54.92425020683979 0.3979752359625972
1.494665130804904 13.067510229072434 366.16138911809225 57.46594145873771 0.4047506237952339
1.5208785975844006 13.060352865188447 328.5156085824554 60.13263862321814 0.4117289583636057
1.546864769162459 13.051853522503517 295.0053761263154 62.931455473532665 0.4189207929834752
1.572582146513472 13.04195567496898 265.192027048952 65.87002729923103 0.4263375139210549
1.5979953366121782 13.030607372222038 238.6523391360132 68.95655835755177 0.43399140908167616
1.623104869304619 13.017786063637491 215.00374867060464 72.19987392390765 0.4418957426704821
1.6478473780756775 13.003418647532575 193.88965521460517 75.60947742756977 0.45006483652962803
1.6721955992465163 12.98746915983098 175.0622247692156 79.19513183503337 0.458512148910473
1.6961318423602 12.969902580333112 158.19540929523328 82.96741044544076 0.4672525217612155
1.719611466105236 12.950669042492244 143.12972530082735 86.93888672785937 0.4763067659665659
1.742151021772021 12.929993289509243 129.88087529064902 90.91503036708501 0.605982071462326
