M[M_sun], R[km], Lambda[1], P_c[MeV/fm^3], rho_c[fm^-3]
0.24162668629717493 15.618656898711224 2160425.4255784233 3.5677272577965504 0.1711233750220791
0.2536434002080096 15.277279454981217 1723303.847976818 3.7848097977596225 0.17388805079810288
0.2660382390684549 14.98131162908962 1383034.0244422897 4.011380867415901 0.1766664119770383
0.2788126849074285 14.723572516303202 1116574.4415910984 4.247696863823784 0.17945715059669984
0.29196682330847196 14.498454416592304 905948.6888464377 4.494382791647111 0.18226682963136584
0.30550130786985163 14.301271522453353 738709.9445433574 4.751593055262783 0.18509113183700396
0.3194178639307527 14.128175985449971 605140.8296488114 5.02001192023866 0.18793671952543087
0.33371455835518865 13.97601775060575 497713.51804938965 5.299860689238862 0.19080016192072535
0.3483946452978803 13.842080209493162 411038.4177713248 5.591871166320658 0.19368782025532044
0.36345474617235707 13.724064968504463 340695.9991745916 5.8962066019735415 0.1965946831676345
0.3789076395922805 13.620097717516025 279419.34683363314 6.213732724459864 0.19952846613976932
0.3947399917992809 13.528512340174863 236429.53191218295 6.544709604248108 0.20248539485320613
0.41096392481521316 13.447919845278227 197886.84660816076 6.889834326347427 0.20546909084780704
0.4275698806772167 13.377117983645872 166102.5723980247 7.2498142895833695 0.20848267036583681
0.4445648312994033 13.314986812840194 139819.9967923769 7.624912339115245 0.21152174224914716
0.46194528130395973 13.260602372303678 117991.78199666612 8.016069711757778 0.21459234871108368
0.4797086235135793 13.213188850500813 99825.14428329076 8.423994865574166 0.21769619429914944
0.4978646249716483 13.172012367707797 84654.15528717397 8.849133995046133 0.2208308244299292
0.5164009226339896 13.136439353310308 71948.96994133171 9.292349707397776 0.2239994963626183
0.5353179587242861 13.105875554522603 61286.64680268089 9.75453166020169 0.2272052019327897
0.5546233136869501 13.079849804174547 52309.892323597895 10.236489262537361 0.23044929178939702
0.5743044638661862 13.05786245650583 44738.683865169376 10.738700974660478 0.23372855616405633
0.5943599517730762 13.039537293421894 38336.094360334006 11.262396861433498 0.23704900017647015
0.6147950556076227 13.024519325830653 32907.434195674774 11.808521213920413 0.24041232742707444
0.6355954800701523 13.012451151560823 28297.358230789734 12.378052810796849 0.24382017045957122
0.6567658376764952 13.003042744490445 24376.11930403266 12.971690730689895 0.24727059456557773
0.6782954461543756 12.995988839931021 21031.944877392918 13.590741498723768 0.2507681596855732
0.7001833387634593 12.991054932955635 18040.208267015438 14.236412122727854 0.25431561204239256
0.7224148739189933 12.988006808794724 15733.312136497949 14.909891994804388 0.2579149356914324
0.7450016480189754 12.98665421730485 13540.926562958412 15.612223022218592 0.261566151398698
0.76791979171667 12.986754675050383 11838.195713449793 16.344646705793 0.26527090934173453
0.791163493631462 12.988129455054967 10291.528715944914 17.108790437185665 0.26903401887027095
0.8147361430019648 12.990653819912797 8958.625023030001 17.906108871828977 0.2728579117940066
0.8386166619436836 12.994129110439832 7809.3499435156145 18.737980262039525 0.27674378694871815
0.8627947381695683 12.998388081807667 6816.237883474689 19.605722798993465 0.28069189250875354
0.887268737029416 13.003331038216247 5956.835963851977 20.511434273340104 0.2847087013473445
0.9120281479800766 13.008828302386446 5212.493378981398 21.456908286178475 0.2887972257661497
0.9370462970459501 13.014738264570926 4566.564149960783 22.44364528910093 0.2929575208237672
0.9623222474414503 13.020930405561154 4005.713455471626 23.473637375273984 0.297193121393909
0.9878454642984337 13.027315696622509 3517.46516615888 24.549322030042795 0.3015102554948033
1.013585959404473 13.033778672070486 3092.9715336085965 25.672660564118534 0.30591069835515733
1.0395471235396747 13.040233815234698 2722.2099991026225 26.84557525549192 0.31039542410409265
1.0656974965020038 13.04655538704785 2399.024890817418 28.071180538767333 0.314973305572884
1.0920259446936378 13.052686210432782 2116.23404447805 29.351552763567252 0.31964493806714395
1.118523328354793 13.058524304340509 1869.1515612046398 30.689403576001848 0.324414707716014
1.1451526180116003 13.063985446815362 1652.5732439875037 32.08817765018851 0.3292909775620753
1.1719149169731309 13.068995084434587 1462.600277453077 33.54976548245005 0.33427111919017943
1.1987675703435101 13.073450700557373 1295.8345585347595 35.0787321523905 0.33936885583638277
1.2257119023707483 13.077319141420388 1149.4244903213241 36.677129351123725 0.3445811255154048
1.252704947912313 13.08048602182583 1020.4348962826626 38.349959469722535 0.349922065725659
1.2797452056405998 13.082929019048786 907.0143826615599 40.09949439698726 0.3553884556778187
1.3067887119637627 13.084522289900058 807.00745686976 41.93120337568016 0.3609948448584893
1.3338233537670372 13.085237167633876 718.7806455688797 43.84851727851104 0.36674287581829745
1.360831147267659 13.085034732286 640.8332660440874 45.856202971341816 0.3726407435094262
1.3877606635367215 13.083779758859118 572.0037690917055 47.95955216615697 0.37869818110655107
1.4146165065263478 13.081493258414088 511.00469032134464 50.16327114989217 0.3849205903638236
1.4413386073261778 13.07804633775104 457.0299752775933 52.47267151714023 0.3913154257984859
1.467931122032087 13.073451014543638 409.1522397159486 54.89412030375895 0.39789413168224846
1.494340161459868 13.067590717178387 366.6596097372721 57.433804182578555 0.40466576368009144
1.5205510817145553 13.060450715265436 328.95334303250377 60.09834764947545 0.4116400871043655
1.546533411309598 13.051969234214631 295.3896287105221 62.89485243405781 0.418827635337941
1.5722490643577474 13.04209532271874 265.55577390996024 65.83094068323331 0.42623977302610433
1.5976729172480968 13.030772807828624 239.00719810409382 68.9148023006101 0.43388876459537806
1.622760079045932 13.017960155143681 215.31315846349517 72.15524687228337 0.4417878487257842
1.6475118539940312 13.003627503888517 194.16962403177757 75.56176066353935 0.44995131947880657
1.671860894865662 12.987699685898445 175.2943817148668 79.14433705439357 0.4583936452683704
1.6957983838417414 12.970158065969308 158.41960296846406 82.9130419792299 0.46712758318420966
1.719263615711689 12.950920019610441 143.33475172413043 86.88066465282141 0.4761749216124108
1.7422657975447895 12.93002594535351 129.82728341745704 91.05885195940206 0.4855502935871423
1.7647460170920293 12.907385505353794 117.72036642642388 95.46153631884019 0.49527501103830557
1.7866720802710472 12.88295970033015 106.85650833662262 100.10253394521713 0.5053671980574921
1.8080127498235006 12.856711974494244 97.12022957129234 104.99828436442347 0.5158522378109345
1.8287254975440732 12.828587955705803 88.36296068332496 110.16531879248426 0.5267526534439937
1.8488066601952016 12.798633812626969 80.49208731392146 115.62117211781528 0.538091490093004
1.868194823921491 12.76673451533221 73.40727361362227 121.38621062009166 0.5498986888730938
1.8868672562558664 12.732897177671353 67.0335524980117 127.48176040558701 0.5622037187717562
1.9047918984558596 12.697093420598868 61.277840025980574 133.9303406211189 0.5750361848594999
1.921937098536632 12.659291035926488 56.094200151561004 140.75742693473953 0.5884316820156477
1.9382536622272506 12.619414488923749 51.41013297393717 147.99077903793508 0.6024288082389282
1.953751283111065 12.57758815311672 47.17823462645181 155.658996584771 0.6170637117224924
1.9683735139314402 12.53367128403155 43.35382524675512 163.79559029529966 0.6323835640807907
1.9820936039533652 12.487685497613777 39.89422348275324 172.43419212097814 0.6484295000844936
1.9948880137167684 12.439622812868667 36.75965715017526 181.61430100525376 0.6652554464726658
2.0067211460806926 12.38946298006037 33.91745185247992 191.3777748157179 0.6829153910290443
2.0175801482371 12.337218940780636 31.339237763537877 201.7706148644101 0.701468524232242
2.027421441160234 12.28284966904396 29.00228447655975 212.84286485186846 0.7209779025944758
2.0362368112027083 12.226399050597813 26.879602443782826 224.64971145815116 0.7415129528308465
2.043986905256885 12.16782127795234 24.950917256337416 237.25253826421013 0.7631516185839489
2.0506534566630608 12.107133609971857 23.196292586766216 250.71797676680842 0.7859758306658337
2.0562260604487843 12.044381271662848 21.600904625391998 265.1191073891438 0.8100737989621752
2.06068586728459 11.979570838761452 20.149267484125875 280.5378339496459 0.8355458766515953
2.063997196649701 11.912691152239205 18.82776018422933 297.06347534705395 0.862497837186583
2.0661663386448326 11.843808359709536 17.62477315719892 314.7964769995136 0.8910505507516061
2.067166152212158 11.772933631085932 16.528632540348116 333.8462990593496 0.921330245048268
