M[M_sun], R[km], Lambda[1], P_c[MeV/fm^3], rho_c[fm^-3]
0.24162668629717493 15.618656898711224 2160425.4255784233 3.5677272577965504 0.1711233750220791
0.2536453685402007 15.277235706572233 1723243.8021645742 3.784846735409068 0.1738885112080839
0.26604250243869587 14.981221832279521 1382973.5253815833 4.011458518065164 0.1766673503393084
0.27881943882744603 14.723448423350963 1116378.2447234674 4.247817854863219 0.17945855391042767
0.29197612446941884 14.498311900584508 905765.0643203824 4.494550298333422 0.18226869485719416
0.30551250304958566 14.30118023410104 738589.1964779634 4.751812765637673 0.1850935051283763
0.319430849186966 14.12803817654288 605018.7245046443 5.0202854531177055 0.18793955753462496
0.33373148034217154 13.97580433697348 497601.22912990226 5.300195246470848 0.1908035303569206
0.3484145126211206 13.841913369497469 410934.6513126649 5.592267583594821 0.1936916557014986
0.36348008258824105 13.72385281199476 340615.04689201753 5.896673785912024 0.19659907105805138
0.37893469206111985 13.619897002708408 283243.24618493416 6.214276329183541 0.19953342316030656
0.3947696925214698 13.528363382092998 236368.3673269064 6.545329065736932 0.20249082669361165
0.41099677668826384 13.447765652688203 197818.82098044947 6.890541603981954 0.2054751143209402
0.4276083118453196 13.37696836718594 166039.05552325348 7.250616020995316 0.20848930288434167
0.44460554417606096 13.3148436398794 139769.32350535181 7.625806308753503 0.21152885882228828
0.4619867286785275 13.260481613532727 117944.9512884932 8.01707151351414 0.21460009845759107
0.4797569636307911 13.213067959673248 99779.11166942457 8.42511231208772 0.2177045959347698
0.49791673169740186 13.171901408330587 84612.94214670052 8.850362966407927 0.22083972270768767
0.5164581569820561 13.136325532345156 71918.55958844817 9.293710093402638 0.22400907356490268
0.535378971004202 13.105780277663966 61253.99968526857 9.756032685503003 0.2272154787465415
0.5546892121442545 13.079762679617668 52287.21942153042 10.238136405349987 0.2304602344215318
0.5743747478788364 13.057799525658627 44713.972321100235 10.740495673597017 0.23374007868715707
0.5944340155894564 13.039508804772106 38313.25051655595 11.264361800885844 0.23706127715372655
0.6148738606278946 13.024472268030788 32889.20351647492 11.810668002941501 0.24042538348616108
0.6356835423143122 13.012402907778743 28280.715617333204 12.380393782747081 0.2438340315281956
0.6568556971533314 13.003007073280296 24360.394750114072 12.97421513538116 0.24728502302761216
0.6783909504896439 12.995960117805739 21018.888221466117 13.593485185697102 0.250783435799563
0.7002826716145181 12.991052464108586 18164.20674496855 14.239389804647239 0.25433176611213104
0.7225209384782194 12.987998877858837 15722.301268871503 14.913119329711337 0.2579319998276386
0.7451116122190151 12.986650963810252 13627.795908777507 15.615685183264896 0.2615838476694245
0.7680356448489345 12.986757081526337 11830.982777620924 16.34839058124082 0.2652895716218455
0.7912825802254568 12.98815557302278 10284.544927694926 17.11283481868067 0.26905368532793866
0.8148629619292372 12.990680277160573 8951.932793368138 17.91047379695941 0.2728786230516434
0.8387488626720215 12.99414673533962 7803.802659661067 18.742646369913583 0.2767652253000904
0.8629328450918825 12.9984234025575 6810.576678473699 19.610750764952332 0.28071444982103877
0.8874167232168235 13.003374972094592 5952.168275333663 20.516848299360543 0.284732426448824
0.9121769201404833 13.008865438418221 5208.489055763703 21.46273423163625 0.2888221707774819
0.9372007501462549 13.014761144050048 4562.549692390782 22.44985888408261 0.2929833285598366
0.9624881969018427 13.020982055525176 4002.391554382964 23.480316602200563 0.2972202477190496
0.9880128995277345 13.027354518900474 3514.89006877706 24.556498330687727 0.30153876353051573
1.0137585613338063 13.033814223681965 3090.3626799191516 25.680306158473485 0.3059402041762314
1.0397258722718856 13.040276410396872 2719.869621288811 26.853783620243483 0.3104264338280476
1.065881484600164 13.046601608190858 2396.7975352635617 28.079990101002366 0.31500589597428263
1.092216191374796 13.052733665140256 2114.418107822848 29.360932298733527 0.31967869863467857
1.1187182308249737 13.058571803192853 1867.200613268786 30.699465075830656 0.32445020030862903
1.1453536821157773 13.064027529574615 1650.890736809386 32.09888827390426 0.32932777821020864
1.1721198739983538 13.06902786706671 1461.1340700962235 33.56125087536991 0.33430982614851296
1.1989793988389295 13.073485889992241 1294.6035468919324 35.091046528698925 0.3394095761403998
1.225928245036873 13.077349412433422 1148.3328289979315 36.690236972936795 0.34462340867435753
1.2529268055296263 13.080513925658137 1019.5947935246606 38.363935890988145 0.3499661368842736
1.2799721888324456 13.082950485410567 906.1012280002815 40.114453524551415 0.35543473422098054
1.3070254343186238 13.084552794876203 806.2313932550786 41.94713178027616 0.36104299883872576
1.3340585662003965 13.085240413871732 718.0877327005562 43.86559356077392 0.3667936353603856
1.3610695330761369 13.085028428489895 640.1962733789494 45.87439134792661 0.37269363283783064
1.3880106542399098 13.083780660078405 571.3988881950843 47.97893033217748 0.37875333762245356
1.4148543160758653 13.081455579419211 510.4743304454867 50.18405161402116 0.38497881951436747
1.4415878024386553 13.078008118317221 456.5527035156881 52.4948212881535 0.3913762407708863
1.4681829403283486 13.073402172711367 408.7183526240115 54.917737467866445 0.3979577048405715
1.4945949097502584 13.067529957117111 366.2745558371298 57.458994771568534 0.40473228071381917
1.520807950905558 13.060373969373297 328.6172672830239 60.12522635215118 0.41170974812278566
1.5467927945686522 13.051877114075465 295.0821283260182 62.92354337866718 0.4189006560730031
1.5725108528691643 13.041987587513258 265.27370006788084 65.86157829879703 0.4263163861553792
1.5979242381420486 13.030641633882274 238.73874682363441 68.94753226601782 0.43396922119812964
1.623032634541977 13.017826732861428 215.07225525040292 72.19022716311646 0.4418724198867123
1.6477747862038312 13.003463032094274 193.94689738736452 75.59916270781272 0.4500402980557675
1.672122933282948 12.987518798481661 175.11120665369035 79.18415168653088 0.45848653234963777
1.6960599208729532 12.969955984007496 158.24276829391724 82.95565769545045 0.46722551397596734
1.7195390923639422 12.950730712212097 143.17292587477766 86.92630085125364 0.47627826514842303
1.7425211943544394 12.929780393671006 129.68165313651966 91.10752763488252 0.48565857904821425
1.765002404290493 12.907113759936918 117.58640854518215 95.51372043476782 0.49538951464079767
1.7869126711730565 12.882634282513486 106.7463586745923 100.15827194143208 0.5054874782351995
1.8082634621678615 12.856390213283579 97.01722211112946 105.05786530095129 0.5159787580545377
1.8289663867774157 12.828233704954826 88.2673781262931 110.22905796562581 0.5268859150999178
1.8490475303257838 12.798253981821375 80.40457824547131 115.6896741736101 0.538232991702034
1.8684192882026256 12.766298999524546 73.32791098833675 121.45960020372785 0.550048083171095
1.8870957890939322 12.732461347625794 66.95681807041295 127.56027895106718 0.5623610377566977
1.9050146086465427 12.696627964921657 61.210111718133916 134.01449105618724 0.575202323946803
1.9221521674988362 12.658791089834619 56.03256323973739 140.84781116161736 0.58860778486099
1.9384608346923329 12.618883470141155 51.35327899320406 148.08793838438027 0.6026156990757944
1.9539521909150033 12.57701886927564 47.130046381802124 155.76320554917294 0.6172611981414986
1.968561537629665 12.533064850584951 43.307484890019204 163.9074804521236 0.6325925758236097
1.9822729568875963 12.487049019817263 39.85048736827744 172.55479383544636 0.6486521779639405
1.9950548621975754 12.438946505310618 36.718834508079915 181.74405151221168 0.6654917888201822
2.000889002179703 12.397153373858965 34.80463208673645 193.29160755681315 1.8487621740557636
