M[M_sun], R[km], Lambda[1], P_c[MeV/fm^3], rho_c[fm^-3]
0.24162668629717493 15.618656898711224 2160425.4255784233 3.5677272577965504 0.1711233750220791
0.25364470072299455 15.277259082962692 1723177.7320290897 3.7848320256943295 0.1738883278585859
0.26604051893854214 14.981255917639626 1382991.077107194 4.011427595045537 0.1766669766528657
0.27881709189780574 14.723465167297968 1116354.2648972718 4.247769672093594 0.1794579950629099
0.2919719751282928 14.498379823702928 905809.8953764901 4.494483591180813 0.18226795205756796
0.3055078609613808 14.301197845591012 738511.5401432432 4.75172526876147 0.18509255999512303
0.31942515523900095 14.128115746887621 605064.3455405994 5.020176521700768 0.18793842732913058
0.33372299313029535 13.97593355711336 497652.5798437737 5.300062012269732 0.1908021889095909
0.3484065929740413 13.841980462665916 410977.5476546316 5.592109713655931 0.19369012826641133
0.36347027835082407 13.7239334298105 340633.6062936232 5.8964877330226955 0.19659732360994184
0.37892494902055046 13.619955951460845 283279.50777295494 6.214059841411828 0.19953144905249678
0.3947577525014136 13.528409894988556 236396.86787690935 6.545082367553288 0.202488663483814
0.41098375003832066 13.447826002356473 197841.47541377074 6.890259932313622 0.20547271548681376
0.4275928344747103 13.377041106817176 166062.68238566336 7.2502967321603995 0.20848666148963713
0.44458935528098376 13.314903357250898 139789.35367656298 7.625450284957331 0.2115260246439482
0.4619713127257591 13.260532727582254 117968.53028184811 8.016672544092197 0.2145970121065594
0.4797376872076277 13.21313074419158 99806.49324516761 8.424667285328445 0.21770124995567602
0.4978953385814137 13.171968380383234 84632.15359998212 8.849873522967002 0.22083617892805227
0.5164350440157832 13.13637200334878 71929.4876520782 9.293168311563763 0.22400525938698085
0.5353548709401641 13.105816679417252 61268.42334902644 9.75543489111601 0.22721138592973714
0.5546622766085924 13.07980493986555 52298.80538560529 10.237483007981997 0.23045590974639693
0.574346743260607 13.057832440528607 44723.708354779934 10.739780916845486 0.23373548972740832
0.5944051598181105 13.039498710109884 38321.47488198709 11.26357924142152 0.23705638770803203
0.6148419813916822 13.02449105486457 32896.03835149464 11.80981301684156 0.2404201837441606
0.6356483153960115 13.012436785338448 28287.770018124775 12.379461457574083 0.24382851116166498
0.6568203870071174 13.003004917456858 24366.621631486476 12.973209752581507 0.24727927667180594
0.6783535378686177 12.995969321513721 21024.246944876213 13.592392466586228 0.25077735183231065
0.7002427154073977 12.99105961122622 18168.788888436775 14.238203889032045 0.25432533246204
0.7224788728400556 12.988004556280442 15726.062460120867 14.911833980819775 0.25792520370353295
0.7450677094760427 12.986639211586615 13631.548094833488 15.614306306333924 0.2615767997651986
0.7679894730553515 12.986750835292746 11833.71938067317 16.346899500568583 0.26528213895867037
0.7912366034034813 12.98813902167858 10286.93798448423 17.111224049258748 0.2690458527016921
0.814810681665932 12.99067458343462 8954.352255280197 17.908735357466572 0.2728703742805543
0.8386950304245001 12.994139383968296 7806.056517611803 18.74078797162575 0.2767566869215189
0.8628778112663854 12.998418250874254 6812.698755241452 19.608748240273567 0.28070546575573135
0.8873612506079807 13.003356958849082 5954.222349238906 20.514692008105676 0.284722977246207
0.9121176455319179 13.00885510217137 5210.006995137723 21.460413873395364 0.28881223567543995
0.9371387389611964 13.014744282524276 4564.1957931477755 22.447384125609183 0.2929730498220518
0.9624242132231707 13.020961882592053 4003.5792770922926 23.47765638169435 0.2972094437731453
0.9879460806856036 13.027340640551042 3515.7989562659864 24.553640123978884 0.30152740923211596
1.013690280629944 13.03380443032046 3091.3843185564892 25.677261030604342 0.3059284524413259
1.0396549453750819 13.040264926530902 2720.7489607103516 26.85051433719805 0.3104140830654002
1.065808223171637 13.046578860200789 2397.635254723802 28.076481355957263 0.3149929156006415
1.092141197773266 13.052717587475057 2115.21599221317 29.35719652895982 0.31966525215726754
1.1186405687094507 13.05854954700034 1867.954515381324 30.695457671620474 0.3244360639306043
1.145271951497029 13.064008262550384 1651.6572141934569 32.09462231646022 0.3293131208006108
1.1720377225867418 13.069016597798258 1461.6837682520827 33.55667631581339 0.33429440941115063
1.1988949057450626 13.073470567757955 1295.0802954294493 35.0861417711686 0.3393933574369298
1.2258418577033798 13.077344248034303 1148.758269688039 36.68501625288276 0.3446065674396133
1.2528382212941374 13.080497354802986 1019.9046055287265 38.3583780171865 0.3499486356724864
1.279881667485156 13.082937774482703 906.455859141959 40.10849531289941 0.35541630150463915
1.3069268246043435 13.084525793412919 806.5588929696204 41.94078748503451 0.3610238190730537
1.3339651871575442 13.085235732906446 718.4116619620454 43.858792036749655 0.3667734177134963
1.360974596563945 13.085031067965224 640.4368222585908 45.86714684912709 0.3726725668194124
1.3879062761420573 13.083769776422676 571.654705766989 47.971211908698216 0.37873136849767025
1.4147571447827048 13.081463980043127 510.6585870482245 50.17577461199241 0.38495562644253845
1.44148805168212 13.078024678016194 456.7520785299403 52.48599884961854 0.3913520176601514
1.4680835866475916 13.073421144359576 408.9063587826745 54.90833051945358 0.39793238302724687
1.4944933411316905 13.067552124948417 366.42112341025705 57.44896107448879 0.4047057862254476
1.520706104064765 13.060404725234925 328.7358846921099 60.11452021874744 0.41168200124209564
1.5466897801338944 13.051914915680037 295.2076482713809 62.91211536067552 0.41887157085864657
1.5724059665599925 13.042030316736136 265.38896548251824 65.84937484417107 0.4262858699148149
1.5978199964190303 13.030691309193148 238.84412058446026 68.93449534077992 0.43393717390746184
1.6229176529666844 13.017871106786986 215.17014855652855 72.17629383426946 0.4418387335516899
1.6476702205464029 13.003530006800698 194.0371468022137 75.58426468285019 0.4500048560074397
1.672018289331879 12.98759310339412 175.17927594003243 79.16829261802782 0.45844953332425964
1.6959563240338804 12.97003459092984 158.32054361415817 82.93868281438172 0.4671865057487103
1.7194359477940062 12.950819303371684 143.23669765749926 86.90812275335118 0.47623710070046826
1.7424121239071202 12.929843393272563 129.7472151972007 91.08813875447636 0.4856154459261009
1.7649001902794852 12.907220692868444 117.64495970785545 95.49293394240074 0.4953439044351461
1.786826656584133 12.882779957426317 106.79645774926509 100.13606973618386 0.5054395668394892
1.8081640313622989 12.856517843971966 97.05834099287435 105.03413222489381 0.5159283608177833
1.828872795887782 12.828377543381459 88.30407573005225 110.20366840768654 0.5268328322880863
1.8489514939887184 12.798404554262493 80.43846735431298 115.66238724288301 0.5381766263191476
1.8683260926134597 12.766461771601335 73.36527914611992 121.43036624392984 0.5499885735419974
1.887004413353132 12.73263542762526 66.98828523643095 127.52904496661583 0.5622985254097299
1.9049265368215609 12.696813602841491 61.23813873985209 133.98097030098592 0.5751361435679335
1.922065954739161 12.658990851294114 56.05648667257156 140.81180702219007 0.5885376351057033
1.9383784653126312 12.619095486616835 51.375496428346366 148.04923519039338 0.6025412515565566
1.953872511628944 12.577246141381174 47.14841662362438 155.72169394205778 0.6171825294906449
1.9684877687441555 12.533306211810977 43.32758581326366 163.86290880478438 0.6325093156159639
1.982201087865912 12.487301934512397 39.86839084670093 172.506751626493 0.6485634732779346
1.994986549306167 12.439219025078165 36.73325135524188 181.69236454316433 0.6653976402893821
2.006821482211023 12.389050763709621 33.89293342524393 191.46184932462873 0.6830665327820353
2.0176670316240264 12.336769144332894 31.318299666250454 201.86125955701226 0.7016294096202492
2.0275006797009145 12.282378469894102 28.983014023522664 212.9404686896428 0.72114865466921
2.036308745165916 12.225902768050553 26.861440354741717 224.75517785982177 0.7416952540169331
2.0440499843058966 12.167301924901576 24.93438241232972 237.36638104033125 0.7633457309750109
2.050707459221631 12.106586211131804 23.18119488790358 250.8410712910891 0.7861830350925925
2.0562777360484503 12.043831483857279 21.587681095638345 265.25251368046315 0.8102957947816728
2.060720211283735 11.978975803538539 20.1361405213442 280.6821119723184 0.8357825261891938
2.064023250424682 11.912073457941142 18.816331984209373 297.2200064048114 0.8627514455475594
2.0661811147001923 11.84316268258477 17.61447406380114 314.9665180525628 0.8913227530330368
2.0671706138953105 11.772262253272462 16.519515715946408 334.0309716252498 0.9216219206145668
