M[M_sun], R[km], Lambda[1], P_c[MeV/fm^3], rho_c[fm^-3]
0.24162668629717493 15.618656898711224 2160425.4255784233 3.5677272577965504 0.1711233750220791
0.2536434478225633 15.277273973255653 1723214.650457474 3.784810355351107 0.17388805774821176
0.26603832527593724 14.981313381129079 1383045.046896137 4.011382039581598 0.176666426141969
0.2788131729931899 14.723586029033081 1116488.7087559921 4.247698690216905 0.17945717178010773
0.29196653613870727 14.49847854244316 905927.6565337332 4.494385320190521 0.18226685778728352
0.30550149965605095 14.301265485604628 738683.330080331 4.751596371808627 0.18509116766202877
0.3194178472431896 14.128175438921678 605139.3366990635 5.020016049214139 0.18793676236514512
0.3337152029049036 13.975974415384185 497724.5282846988 5.29986573934415 0.19080021276690595
0.3483949362587232 13.842077868704886 411036.4015197071 5.591877150161195 0.19368787815062374
0.36345753147484094 13.724025592016337 340667.81947199383 5.896213653979189 0.1965947494015639
0.37890996993276044 13.620067381772072 283328.3328376643 6.213740929964533 0.19952854096409184
0.39473985601489786 13.528510603836105 236417.1763684909 6.544718954728978 0.2024854768442915
0.41096441922858634 13.447940412996296 197886.54726192466 6.889845002307427 0.2054691817687624
0.4275707314834974 13.377111690109047 166095.4073221806 7.249826391197684 0.20848277047939065
0.44456491680682114 13.314980187936882 139822.77051007963 7.624925832933148 0.21152184966861415
0.461946768718762 13.260604308293447 117991.43898846021 8.016084833133437 0.21459246568714951
0.47970890125227966 13.213193342296847 99836.08036382434 8.424011732413513 0.21769632111420192
0.4978654672610639 13.172011521619101 84653.38158627092 8.849152545155993 0.22083095874065045
0.5164026904369102 13.13642042506341 71949.68333374787 9.292370240962974 0.2239996409201974
0.5353195923004596 13.105863922948366 60695.711484570245 9.754554316435096 0.22720535704935624
0.5546251915276229 13.079823706806799 52307.92119774363 10.23651418911058 0.23044945779065076
0.5743055453932291 13.05787687037072 44738.005501380285 10.738728063266288 0.23372873008129663
0.5943610908898218 13.039555361863856 38334.64117753617 11.262426519425322 0.23704918548013978
0.6147963876238893 13.024542373078106 32906.004070358125 11.80855361649042 0.2404125244887626
0.6355962193003395 13.012466938961426 28302.86978456062 12.378088144066464 0.24382037967048242
0.6567673376949625 13.003028407852828 24375.5230354492 12.97172883240402 0.24727081233935133
0.678297346581267 12.995987088179078 21031.72867980011 13.5907829099064 0.2507683902519434
0.7001849267253405 12.991067656179474 18039.776073741625 14.236457065402048 0.2543158558585935
0.7224168128433917 12.988005309375968 15733.195382009932 14.909940705257867 0.2579151932419615
0.7450033120892882 12.986654186565158 13540.783222954526 15.612275276678123 0.26156641848883333
0.7679217590281957 12.986761028533255 11838.449727262097 16.344703211851836 0.26527119101026564
0.7911653351040125 12.9881297057108 10291.417612568119 17.108851478413815 0.2690343156930931
0.81473811885238 12.990663232345499 8958.484013619514 17.90617475059587 0.27285822438404495
0.838618288658535 12.994117488873483 7809.4242040998915 18.738050686155763 0.2767441105110939
0.8627971376444519 12.998388341327916 6816.21347671803 19.605798684084732 0.28069223295729984
0.8872708126575332 13.003338779999204 5956.855928401068 20.511515984609815 0.28470905941879787
0.912029966256242 13.008843028894441 5212.5439710406945 21.456996213836927 0.28879760224692047
0.9370486285299864 13.014727633137639 4566.468660288209 22.443739066889094 0.29295791032331026
0.9623251929560246 13.020928286938451 3983.3013317044847 23.473738179952818 0.2971935307916618
0.9878484974461925 13.02731610562935 3517.4902447078684 24.549430336049575 0.301510685743153
1.0135873201809371 13.033784269784041 3093.001199456512 25.67277595223618 0.3059111436601258
1.0395502683992328 13.040235543508363 2722.155700733415 26.84569913625568 0.310395892103311
1.0657005084706312 13.046559927382102 2399.0252863690703 28.071313492006254 0.31497379742472725
1.0920302525241716 13.052686298918031 2116.280500133516 29.351694318098556 0.31964544757654173
1.1185263546553197 13.058522256257136 1869.1171364061538 30.68955542170352 0.32441524336156596
1.1451554329995062 13.063982503075458 1652.542585722762 32.08833929149883 0.3292915329456966
1.1719169309709598 13.069000642846516 1462.5669157267282 33.54993881523712 0.33427170333954326
1.198770649198406 13.073454282047406 1295.8110714639927 35.07891799466523 0.33936947036640336
1.2257148249167844 13.077323818689262 1149.381784248238 36.67732716362394 0.34458176362790977
1.2527089267980818 13.080491475885568 1020.4855849552002 38.350171528172716 0.34992273748034136
1.2797494815158457 13.082934178402953 906.965300009407 40.09972014863412 0.3553891540779953
1.3067918663795108 13.084520384439182 803.6365389765438 41.93144375360043 0.3609955715573594
1.3338283190282119 13.085234217866386 718.7678242348384 43.84877497747065 0.3667436418328775
1.3608351515105288 13.085034879469283 640.8419191538393 45.8564774514203 0.3726415416602092
1.3877642846947036 13.083780000974626 571.9917501536169 47.95984459962223 0.3786990134665928
1.4146196257509898 13.081492988958523 510.9725089455858 50.16358474303019 0.384921469086355
1.4413424719655596 13.078042707290118 457.02351743124535 52.473005772175576 0.3913163435375784
1.4679349413230818 13.07345148107938 409.13711052111165 54.894476700580384 0.3978950910383952
1.494344422139916 13.067587178440666 366.65711936829194 57.43418432094002 0.4046667674548035
1.5205550793412026 13.060450133097747 328.9427107782936 60.09875325972707 0.4116411383166785
1.5465373218422724 13.051967837450787 295.38467413645225 62.895285388947926 0.41882873724255776
1.5722535426689925 13.042093226569598 265.5536623246422 65.83140301090027 0.42624092913334916
1.5976768419607228 13.030770894724904 239.00111299654066 68.91529619889732 0.4338899786931566
1.6227638182748454 13.017957624399973 215.30684159538274 72.15577472452895 0.44178912490377314
1.6475156736210694 13.003624395494583 194.16650720584784 75.5623250560072 0.4499526621551124
1.6718641156367338 12.987697496889556 175.2916485172946 79.1449378488838 0.45839504691504257
1.6958024823769844 12.970156752224147 158.42135923124664 82.91368503669291 0.46712906092838674
1.7192675403618098 12.950917064088868 143.3321427905006 86.88135328312106 0.476176481021227
1.7422691375934323 12.930022149715027 129.82336215281538 91.0595864491915 0.48555192755656784
1.764748906822274 12.907380892297184 117.71808785181712 95.46232374277362 0.49527673882223877
1.7866778424467074 12.882954564695678 106.85740520215208 100.10337498889777 0.5053690129932672
1.8080171954936441 12.85670725935781 97.12023506497094 104.99918338854178 0.5158541468905341
1.8287292100322106 12.828582648534864 88.36143660801974 110.1662805534669 0.5267546642303724
1.8488108191284809 12.798627758891405 80.49203151263927 115.62220573674843 0.5380936251930454
1.8681986143780882 12.766727351162514 73.40482278553748 121.38731797739321 0.5499009430467585
1.886870730988823 12.73289129966999 67.03246451084328 127.48294771754122 0.5622061016973746
1.9047953347641156 12.697087009224804 61.279104060042734 133.9316103261123 0.5750386916513969
1.9219404027103821 12.659284470166437 56.09391627252784 140.7587906862607 0.5884343391222194
1.9382568100514208 12.619406837189894 51.409313148149124 147.99224500157732 0.6024316280929302
1.953756716397674 12.577578435062401 47.17946596171549 155.66056890143915 0.6170666914199697
1.968376394387362 12.533662200191152 43.35372930500332 163.79727849180495 0.6323867176458924
1.9820963467496209 12.487676526095978 39.89294810865125 172.43601173889093 0.6484328598100166
1.994889532985661 12.439613513548817 36.75870881422545 181.6162586400034 0.6652590123315063
2.0067231185491408 12.389452273002162 33.91688958094578 191.3798831779458 0.6829191812571074
2.0175824861343736 12.337210476520248 31.33958632899669 201.77288797531085 0.7014725587798669
2.0274231658426056 12.28283786800501 29.0015517926651 212.84531246414946 0.7209821845457255
2.036238429818074 12.226386238934587 26.87863646173706 224.65235622267332 0.741517524369286
2.043989165492786 12.167808014684606 24.950594922808968 237.2553930637887 0.7631564862794766
2.0506546844857447 12.107119954158106 23.196053314512103 250.7210684202599 0.7859810424947189
2.0562269344601614 12.04436764705785 21.600532008153994 265.1224527304438 0.8100793658044587
2.060686952542491 11.979556179271164 20.148825820961513 280.5414518900876 0.8355518109159878
2.06399835342859 11.912676052452113 18.827374589149258 297.0674005176435 0.8625041966662544
2.066166155069136 11.843792818051462 17.624188880591472 314.80074091374473 0.8910573764396428
2.0671660139325496 11.772916583293494 16.528539445672834 333.85092983525243 0.9213375589889027
