M[M_sun], R[km], Lambda[1], P_c[MeV/fm^3], rho_c[fm^-3]
0.24162668629717493 15.618656898711224 2160425.4255784233 3.5677272577965504 0.1711233750220791
0.2536434055844722 15.277293871888407 1723185.9113692294 3.784808430847255 0.17388803376019965
0.2660380147716778 14.981319728570144 1383078.698116671 4.011377993901414 0.17666637725231157
0.2788126965514002 14.723585527405163 1116447.3247876295 4.247692386500062 0.17945709866649184
0.2919664225079701 14.498491277783442 905989.7155560224 4.494376593034429 0.182266760608375
0.30550098288618655 14.301289754622731 738667.5873763111 4.751584924899683 0.18509104401356544
0.31941753716127924 14.12818161934008 605140.3642855679 5.020001798244115 0.18793661450583074
0.3337144167029782 13.97596731815942 497705.0727824764 5.2998483091408515 0.19080003727368067
0.348393713211878 13.84208599608397 411034.7027699304 5.591856497218715 0.19368767832772382
0.3634542540371293 13.724074640069365 340703.97700711095 5.8961893143210595 0.19659452079834394
0.3789085692880725 13.620048122511626 279423.6675133465 6.213712609066611 0.19952828271160336
0.3947381911494788 13.52853184982897 236426.33913329817 6.544686682008556 0.2024851938561317
0.41096311909182787 13.447914068549025 195398.276625527 6.889808154769897 0.20546886795967031
0.4275695944932102 13.377104043768746 166109.56387736733 7.249784623095604 0.2084824249425864
0.4445629624687212 13.314998021149687 139823.97803336926 7.624879259721104 0.2115214789158998
0.46194364075979566 13.26061552837397 118000.82330812169 8.016032642501852 0.21459206195041988
0.479706828597434 13.213194495406938 99826.43942743803 8.423953517418783 0.21769588341882462
0.49787738483354305 13.171945326449535 84515.67888637699 8.849088520455537 0.22083049517446351
0.5163987123986898 13.136440678102245 71949.66743303771 9.29229937048908 0.22399914198764292
0.5353150761724318 13.105882225955291 61286.37736209057 9.754476119705265 0.22720482167315187
0.5546215669111034 13.079844033637942 52310.34321780781 10.236428156447866 0.23044888484667853
0.5743018122734768 13.057879529006208 44739.0750634794 10.738634568487248 0.23372812981585414
0.5943553227027916 13.039556389921174 38002.52656087903 11.262324156578853 0.23704854591522265
0.614791623233206 13.024524535999069 32908.96660264616 11.808441780914714 0.24041184434186877
0.6355924233548375 13.012439161897214 28300.075294326944 12.37796619337854 0.24381965759141014
0.6567632024435912 13.003042229467539 24375.564043963484 12.971597326617529 0.24727006070620222
0.6782934239100973 12.995982659357766 21032.6366517011 13.590639981717791 0.250767594466082
0.7001796622523814 12.991055601490938 18040.48144911245 14.236301948517294 0.2543150143419232
0.7224110568132103 12.988011118806238 15733.348150892345 14.909772584149787 0.25791430432228934
0.7449979405853745 12.986642839839355 13637.552483072237 15.612094923684905 0.2615654966439649
0.7679155896449981 12.986755265570533 11838.639340748361 16.344508184771716 0.2652702188491857
0.7911589784817653 12.988128838076262 10291.80162494591 17.108640798529496 0.2690332912281579
0.8147317112162056 12.990659217345797 8958.652291028959 17.905947374305747 0.2728571454998065
0.8386115266418727 12.99412404206678 7809.807571989018 18.737807621929818 0.27674299375674044
0.8627895918375188 12.998399729168128 6816.4694487713605 19.605536771717613 0.280691057921688
0.8872625686008392 13.00334095524498 5956.676652956044 20.511233963635036 0.28470782355915836
0.91202192722367 13.008832378253128 5212.663916663644 21.456692737478964 0.2887963028490385
0.9370400458010729 13.014736621507268 4566.65049147358 22.44341539926201 0.2929565659922557
0.9623162942681995 13.02091990481873 4005.6133517305843 23.473390259569804 0.29719211778360916
0.9878400914676446 13.027319475905605 3517.555888080196 24.549056525434633 0.30150920077103605
1.0135798659221376 13.033777236106616 3093.162393548741 25.672377698281974 0.30590960672141715
1.0395410802006226 13.040226319182018 2722.300574682223 26.845271570628686 0.31039427683736376
1.0656909175119347 13.046554807881078 2399.148986621989 28.070854613482382 0.3149720998335318
1.092018946747293 13.052688275411626 2116.3435576316256 29.351205752923985 0.3196436890418938
1.1185159730133607 13.058519730549436 1869.1981979074849 30.68903133742413 0.3244133946203106
1.145145227913992 13.063980176238202 1652.5037614556582 32.08778139850137 0.32928961608030755
1.171906255901655 13.06899169322339 1462.670357768504 33.54934057011614 0.3342696871918039
1.1987595746707294 13.073450225822056 1295.8528672241018 35.07827657413899 0.3393673493626126
1.2257044316214758 13.077320792331182 1149.5008079733952 36.67664442890506 0.3445795612313917
1.2526977996081885 13.080485528554952 1020.5336200156445 38.34943962482703 0.34992041897099135
1.2797371374180881 13.082934568677121 906.9939611669979 40.09894098443546 0.3553867436042666
1.3067795976920549 13.08451906871403 807.0528015617318 41.93061410812999 0.3609930634134115
1.3338141516621584 13.085237724132602 718.8283631940149 43.84788555002379 0.3667409979945275
1.3608226446462928 13.085034640128155 640.853231972107 45.855530105477676 0.3726387869068952
1.3877525117301017 13.083778804037237 572.0312868346815 47.9588352892254 0.3786961406433909
1.4146065731201953 13.08149782989948 511.00738495517413 50.162502402027485 0.384918436247589
1.4413290468982878 13.078047620219996 457.05271051113624 52.47185211858655 0.39131317603705956
1.467922302114137 13.073452216033878 409.17028118093447 54.89324662673054 0.39789177990081537
1.4943306179106173 13.06759070906563 366.6679342816133 57.4328723054552 0.4046633030110666
1.5205416124531894 13.060452748690475 328.9681161199969 60.097353330496134 0.4116375101469294
1.5465238417159677 13.05197252266504 295.40261091799346 62.893791082390486 0.4188249341135664
1.5722401170713827 13.042097015874841 265.5720304813994 65.82980732712804 0.4262369389296445
1.597663382291778 13.03077913710249 239.01160225354832 68.91359155230668 0.43388578834123087
1.6227503928587272 13.017964483592129 215.32414616839648 72.15395288930665 0.44178472028859983
1.6475014310599936 13.003634889835391 194.1715290577596 75.56037710596773 0.44994802802813166
1.671851194929934 12.987706756982096 175.29878745847336 79.14286426099815 0.4583902092582287
1.6957887010961696 12.970165512332825 158.42417212516474 82.91146558259867 0.46712396062934225
1.7192535388907484 12.950927345554426 143.34055205037401 86.87897653922704 0.4761710988656873
1.7422567140527905 12.930033747287187 129.8315807110346 91.0570514261371 0.48554628806338024
1.7647365759251037 12.907396055106242 117.72736429974313 95.4596060232763 0.49527077553882437
1.7866643900661179 12.882970558668571 106.86270020625068 100.1004722066701 0.5053627489151535
1.8080041443812551 12.856724368480927 97.12511678294459 104.99608049320494 0.5158475578857824
1.8287163167662295 12.82860225298855 88.36839186202906 110.16296112881592 0.52674772419642
1.8487974903035334 12.798646543660032 80.49820710256985 115.61863830255594 0.5380862561050306
1.8681859411872384 12.766753666538683 73.41094562243727 121.3834960436244 0.5498931629901878
1.8868588642385866 12.732914205704814 67.03562184681743 127.47884982950907 0.5621978772687917
1.904783777932033 12.697111068858446 61.28166088402373 133.92722806801572 0.5750300397132351
1.9219292584440766 12.65931078930929 56.09767614978638 140.75408383767711 0.5884251683912545
1.9382457025752948 12.619433321870757 51.41424924031853 147.9871853800795 0.6024218956592473
1.9537568560281044 12.577641992910037 47.18157424125602 155.65514221522568 0.6170564073063762
1.9683669874716645 12.533693288040979 43.35645911306164 163.79145186040546 0.6323758334500155
1.9820871222938274 12.487708010362686 39.896409872853525 172.4297315228113 0.6484212640776902
1.994881639774304 12.439648195614518 36.76033560134235 181.60950207602062 0.6652467051565266
2.0067149713030297 12.389491336504761 33.91677719913572 191.37260639711323 0.6829060997009327
2.0175747391111645 12.337247429711507 31.340085367846473 201.7650425855276 0.7014586339868856
2.0274162376526736 12.282878533426006 29.00329478388115 212.83686480532003 0.7209674058720108
2.036231802094513 12.226429732041645 26.879648223491625 224.64322811880567 0.7415017462244414
2.0439830115162487 12.167853325186487 24.951640532778537 237.2455400517313 0.7631396859888057
2.050649568223752 12.107167465996355 23.196560746558863 250.71039793907383 0.785963054475383
2.056222697791403 12.044416776609424 21.60128652438617 265.1109066802157 0.8100601525060678
2.0606835830482764 11.97960769305226 20.149375851425592 280.52896500136995 0.835531329512193
2.0639960233856245 11.912729985997847 18.827951931511276 297.05385326714287 0.8624822476930321
2.066164581528254 11.843848456880439 17.625007457571087 314.786024537767 0.8910338184161908
2.0671656661682993 11.77297481298704 16.527912441159092 333.83494728894124 0.921312315833681
