M[M_sun], R[km], Lambda[1], P_c[MeV/fm^3], rho_c[fm^-3]
0.24162668629717493 15.618656898711224 2160425.4255784233 3.5677272577965504 0.1711233750220791
0.25363773704584813 15.27745673980442 1723371.057543937 3.7847190702236704 0.17388691992313565
0.26602778792473625 14.981547338562889 1383365.1060375688 4.011190143761418 0.17666410719423128
0.27879664884488814 14.723861280746892 1116780.98409852 4.247399695415611 0.17945370389098828
0.29194532315346927 14.498779991005893 906230.3466588815 4.493971384535674 0.18226224851769737
0.3054734173945175 14.30166022311021 739004.2688616537 4.751053444886286 0.1850853030150759
0.3193840998392648 14.128530740853842 605323.4443910088 5.019340135885333 0.18792974950348015
0.33367348930059376 13.97637917468627 498005.5485397045 5.299039050136455 0.19079188937830993
0.34834615620215914 13.842486551804717 411284.2617945328 5.590897625353919 0.19367840097865535
0.3634003419987301 13.724475408048068 340896.0106903179 5.8950592937286865 0.1965839074058025
0.3788452833484431 13.62043580039167 283550.2760571843 6.212397771220758 0.199516292973617
0.3946672586311594 13.528889980118315 236629.26432224878 6.543188396330227 0.20247205591481757
0.4108826129476195 13.448297213194317 198059.93162813643 6.888097505612898 0.20545429935360324
0.42748143950808715 13.377444876393668 166259.564305238 7.247845565610333 0.2084663836169486
0.44446611058390406 13.315318641849583 139960.84594502364 7.622717157202825 0.21150426718962695
0.46183734680533384 13.260911360344418 118115.18545707242 8.01360979423751 0.2145733192603065
0.47958963676793703 13.213499383192408 99933.5802592886 8.421251039660582 0.21767556456407755
0.4977366860099521 13.172281786787446 84753.62361452667 8.846116380890834 0.22080897561411753
0.5162622081483945 13.136683037877873 72038.94956469149 9.289009485864616 0.2239759809947863
0.5351698215217313 13.10607901782442 61362.51827520509 9.750846194897221 0.22717996928648485
0.5544640209097403 13.080031159977105 52379.99100513168 10.232434542082846 0.23042228893292152
0.5741312013384549 13.058040707296795 44797.62544652295 10.734294618420803 0.2337002659920793
0.5941808470388519 13.03969525640144 38053.528066353516 11.257572626227173 0.23701885826760022
0.6146004575853375 13.024648259245911 32955.44309752123 11.803250614884583 0.2403802733911363
0.6353888184782536 13.012561941218484 28342.6873931271 12.3723055865841 0.24378614071854643
0.6565433693670977 13.003119846060885 24413.75897397372 12.965493272510459 0.2472351724360114
0.6780653484304461 12.99605185419567 21066.122532984875 13.584005832707783 0.2507306573017891
0.6999387285293102 12.991102782673538 18205.58736773108 14.229102152011738 0.2542759550944944
0.7221577575799213 12.988028324765853 15758.75614552509 14.901969304011809 0.2578730454387312
0.744729967542949 12.986654941105785 13659.738041497665 15.603724003809718 0.2615227100542135
0.7676361435177171 12.98674473227578 11858.63214482392 16.335456309624785 0.26522509752186696
0.7908652259519068 12.988105009612992 10309.388253183235 17.09886256298316 0.2689857429798844
0.81442448605477 12.99062034525295 8975.367912836718 17.89539436394184 0.27280707222020617
0.8382906550138993 12.99406648536103 7823.460921228606 18.726526633938327 0.2766911634538595
0.8624555857690662 12.998323890871792 6829.168076998881 19.593381187650063 0.28063652348210266
0.8869155074420276 13.003262600861694 5968.683365947651 20.498145311221652 0.28465046705485525
0.9116598789353282 13.00874651931454 5222.700163674941 21.442608541766273 0.2887359984015966
0.9366638119382008 13.014635375958767 4575.919126104865 22.428394313987745 0.2928941769557355
0.9619262621652439 13.020823388166471 4013.792700074206 23.45724386660169 0.29712654248420484
0.9874353107633925 13.02722386050105 3524.715023513413 24.531708868555576 0.30144028676557494
1.0131632720620813 13.03367515674125 3099.229897532831 25.653895906725964 0.3058382819284104
1.0391094163896868 13.04012126760893 2728.0758748103344 26.825429809722078 0.3103193182375555
1.0652485005910552 13.046460280980018 2404.055930466646 28.04956005913145 0.3148933220174058
1.0915606606370094 13.052582169532348 2120.996642247293 29.32853384972019 0.31956208411097964
1.118042614508358 13.058425363883929 1873.2368134431601 30.664711544105383 0.32432760497349544
1.1446604233952622 13.063882138323752 1656.3035225878857 32.061777603628805 0.3291999193703768
1.1714085039417141 13.068905971392327 1465.8826923831014 33.52158017871585 0.33417613181056877
1.1982543157586796 13.073381571898732 1298.9076845413435 35.048513189023176 0.33926892991690655
1.225181371637259 13.077251536377346 1152.094800237794 36.64496438417567 0.34447736631106024
1.2521622804347134 13.080432690339824 1022.9140788441556 38.31547862946832 0.3498128379826854
1.2791923739753641 13.082885581071091 909.2064910336201 40.06278752780642 0.3552748968875458
1.3062236324244743 13.084495526612582 809.0297284363983 41.892118831178415 0.360876686359178
1.3332471439818774 13.0852325620694 720.5679619148211 43.80661711304259 0.36661832685735535
1.3602444198386678 13.085045833400777 642.4852998040449 45.81157493657822 0.372510971246594
1.3871648494686502 13.083820329706107 573.4194612594708 47.91200575397921 0.3785628486691774
1.4140027917587206 13.08154080664306 512.3444228835538 50.11228532125442 0.38477772245322617
1.4407327548118631 13.078151392946666 458.1958017673656 52.41832716756403 0.39116621657561784
1.4673077177815563 13.073560182303858 410.24168075138067 54.83617694953699 0.397738158593568
1.4937142662858467 13.067744286499725 367.62447801032675 57.372001867737595 0.40450257151882973
1.5199183646848429 13.060643827150917 329.79517806614774 60.03240520309228 0.41146918533028864
1.5458973016927025 13.052195295127019 296.17531710526066 62.82446555375986 0.4186484951315776
1.5716097989577866 13.042356783811764 266.27015888165835 65.7557798255361 0.4260518240489658
1.597024827553222 13.031069618512703 239.6358080328821 68.83451035638882 0.43369139142434365
1.6221190322896708 13.018302530623014 215.88441383165676 72.06943660301069 0.44158038692603624
1.6468671806013269 13.004020140783762 194.68646044734666 75.47001187090005 0.4497330512754095
1.6712216335387402 12.988148439664643 175.77439302171496 79.04642563024231 0.458164764370876
1.6951459785096807 12.970642227021466 158.86419305456377 82.80850879161623 0.4668873662235235
1.7186405723526037 12.951507688327121 143.72409745854273 86.76872545062534 0.4759214343945721
1.7416395631429524 12.930654131575857 130.1920551423044 90.9394601341048 0.48528469072240704
1.7641220783419382 12.908062221930466 118.05103881956242 95.33354259421662 0.49499416422687154
1.7860529553491935 12.883689592373864 107.16455463692378 99.96582690022241 0.5050721901852607
1.8073956350912015 12.857492165966496 97.38965116334775 104.85215560156374 0.5155419330767039
1.8281322975661911 12.829468883070662 88.61667788770389 110.00839703700927 0.5264235947595951
1.8482160629398656 12.79955726789614 80.71994896603552 115.45317305684713 0.5377444620050629
1.8676167285498027 12.767732182332676 73.61481546415685 121.20623014419124 0.5495323145796468
1.8863036468608332 12.733969973967017 67.21925840796047 127.28878880500177 0.5618164263091291
1.9042484443108754 12.69823667741513 61.452261367223635 133.72397868813434 0.5746287575942004
1.9213969153651465 12.660484515726539 56.25168971383272 140.5357880660942 0.5879998452145245
1.9377438385567447 12.620720963438103 51.55530025933733 147.7525339887641 0.6019705320334174
1.9532699217961234 12.578977137731645 47.29693851557691 155.4034727074752 0.6165794683967163
1.9679143184562589 12.535160170461145 43.47761318894117 163.52048946948142 0.6318685337520772
1.9816555230872426 12.489257729534103 40.001439189743486 172.13849228899446 0.6478835226758864
1.9944859749432993 12.441309877771964 36.857979257740595 181.29618009690836 0.6646759848271184
2.0063355277320767 12.391205007305983 34.008726500169374 191.0351687449607 0.6822994839867023
2.0172281978687825 12.33907567698009 31.42635859518238 201.4012468148744 0.7008129323794698
2.027091805984214 12.284773085909906 29.080900779598792 212.44483867661484 0.7202811024214167
2.035943831262934 12.228426844040918 26.95136998270833 224.2199740647966 0.7407701415158368
2.043728502050613 12.169950729560949 25.016277343376583 236.78858360132864 0.7623603750556195
2.05043076506326 12.109363891452457 23.257126983800042 250.2156543587302 0.785129028630219
2.056042390012859 12.046708541096198 21.656454105814905 264.5755821665576 0.8091693414136419
2.0605358291152616 11.981986041852101 20.20197622293112 279.9491527115154 0.8345788670915077
2.0638944679869033 11.915225453131935 18.874166254031177 296.42578166092716 0.8614646591523919
2.0661051631607665 11.846443484835518 17.667927236151783 314.1037725458981 0.8899416671658478
2.06715046189092 11.775673681665204 16.569066830731455 333.0940192122243 0.9201420791214238
