M[M_sun], R[km], Lambda[1], P_c[MeV/fm^3], rho_c[fm^-3]
0.24162668629717493 15.618656898711224 2160425.4255784233 3.5677272577965504 0.1711233750220791
0.2536413046942549 15.27738118650807 1723249.000805897 3.784787300071229 0.1738877703752703
0.26603567857955807 14.981362475557752 1383083.542985981 4.011333573105755 0.1766658404532114
0.2788087403234572 14.723656238015407 1116553.0228744429 4.247623173182133 0.1794562958963061
0.29196339227336465 14.498447887056857 905976.692662422 4.494280771317336 0.1822656936113161
0.3054946443920928 14.301366389266045 738788.9371942256 4.7514592415802905 0.18508968639384576
0.31940874785205325 14.128287631765208 605187.1866085486 5.0198453278607955 0.18793499106521178
0.3337044023045397 13.976111657567378 497759.17254809133 5.299656932720818 0.19079811043068184
0.3483829669439765 13.842173228900187 411096.3283101737 5.591629737306436 0.193685484363193
0.3634433592483096 13.724118908814717 340730.61816213775 5.895922076998272 0.19659201084885486
0.3788938588027862 13.620130039008714 279460.87000701466 6.213401660926636 0.19952544723897273
0.3947217631247651 13.52860641712907 236477.61551785405 6.544332346257348 0.20248208681027774
0.4109439092294389 13.44803230619846 197932.870531701 6.8894035917273815 0.20546542253103195
0.4275476494062364 13.377206684707915 166143.0696605205 7.249326037057892 0.20847863117782192
0.44454118572415374 13.315045182420885 139850.3591504097 7.624367918505524 0.21151740831103247
0.4619181542747506 13.260686528669236 118024.70089431573 8.015459628100134 0.21458762922076036
0.4796801663908234 13.21325418989543 99851.32411168893 8.423314362359138 0.21769107786629846
0.49783209859016947 13.172092796186636 84680.76341377948 8.848385581674613 0.22082540559734698
0.5163665077136326 13.136505059233857 71970.08718210965 9.291521273578716 0.2239936641368853
0.5352814272018203 13.105947739870537 61308.054266496394 9.753617589942026 0.22719894372394647
0.5545833122060201 13.079888155643799 52324.28989019321 10.235483598637456 0.2304425944601344
0.5742611232751045 13.0579098848555 44752.36854468441 10.737608086866857 0.23372153948588703
0.5943155852266977 13.039589770428083 38348.71261126499 11.261200316279885 0.23704152414069735
0.6147469230864218 13.024568066209255 32919.437375228306 11.807213944086966 0.24040437704535553
0.6355438744061702 13.012485211420117 28309.654565762285 12.376627308106922 0.24381172995236763
0.656711032718389 13.00305476191799 24384.19805330761 12.970153541191877 0.24726180862076128
0.6782389592967961 12.996008792805313 21040.568658786917 13.589070796821547 0.25075885766498945
0.7001223630997285 12.991073211817856 18183.355012385957 14.234598952072231 0.254305775503094
0.7223516489202482 12.988001290855145 15738.545405285875 14.907926823654055 0.25790454509078375
0.7449348048193591 12.986651100932209 13642.704529430677 15.610114878217518 0.26155537596495165
0.7678490739721896 12.986761651539066 11843.469370952034 16.342367044290572 0.2652595458009038
0.7910893214830966 12.988128246448928 10295.927113511108 17.10632781923242 0.2690220439930767
0.8146585979513292 12.990654961031353 8962.67305433042 17.903451100178724 0.2728453008575659
0.8385360708253156 12.994106121319769 7812.544994470466 18.735139124086125 0.27673073338986653
0.8627114955700034 12.998370997992524 6819.547392559312 19.6026613587013 0.28067815775691196
0.8871815328643188 13.003317726997384 5959.854460783789 20.50813779899494 0.28469425568563755
0.9119368661149354 13.008809278259157 5215.062003627746 21.45336103739632 0.2887820374741016
0.9369506150859392 13.014704927426056 4568.655309785597 22.439862040961383 0.29294180736485037
0.9622240017596143 13.020901621141368 4007.569878163853 23.46957065861763 0.29717660524922834
0.987743969103988 13.02729659753341 3519.2233680767768 24.544952707169248 0.30149289824924164
1.013480253360319 13.03375213816977 3094.4024366671288 25.668005546125137 0.30589273374421494
1.0394391165655272 13.040206714861464 2723.701010204804 26.840577643943767 0.31037654402758136
1.0655879323914281 13.046539884665746 2400.167895294786 28.065816945025286 0.31495346330736285
1.0919101352476217 13.0526679292425 2117.42905263988 29.345842194640674 0.31962438352531547
1.118404595252811 13.0584966066183 1870.1379056972994 30.68327786638675 0.3243930988784106
1.1450307218631304 13.063962808817363 1653.321441057065 32.081656790058354 0.329268572528947
1.1717880712524662 13.068971524938672 1463.4147021349104 33.5427729980113 0.33424755379666554
1.1986382971745106 13.073432548515134 1296.5745854845006 35.0712350482206 0.33934406494536246
1.225580207432352 13.077305695083922 1150.0495550141882 36.66914937977956 0.3445553833631215
1.2525707704996643 13.080471059599862 1021.10759137682 38.341404836702694 0.3498949665236142
1.2796095633215776 13.08292098793824 907.5423784198309 40.090387398752966 0.3553602816677333
1.3066476223426737 13.084514867683449 807.4987154728296 41.92150637560506 0.3609655293581732
1.3336813729120036 13.085230036713734 719.2464064146328 43.83812158136339 0.366711974430116
1.3606855233084423 13.085040631159357 641.236199550627 45.84513035551433 0.37260854584670106
1.387612193675777 13.083788611827597 572.3390837891606 47.94775534777417 0.3786646035533378
1.4144649457660652 13.081511764696868 511.3144710278003 50.150620803549536 0.38488514269927454
1.4411934319147606 13.078085623252106 457.30967736469813 52.4591877208538 0.3912784043458252
1.467777755564268 13.073481026250468 409.41548304282304 54.87974336668521 0.39785543155328174
1.4941843491389966 13.06762621205309 366.8990384939101 57.41846957952152 0.4046252718793974
1.5203936884776772 13.060495972096113 329.16502285265676 60.08198558812172 0.41159768186364
1.5463757121197275 13.052025095384288 295.5846037685406 62.877387379036804 0.4187831853843791
1.5720908452733449 13.04215808175454 265.73262340097784 65.81229083219564 0.42619313677774706
1.5975136822150198 13.030848908339367 239.16720706600447 68.89487900693044 0.43383978927551076
1.6226003074423636 13.018048963375069 215.45423201881863 72.13395400833505 0.44173636938754246
1.647351978579397 13.003724952249474 194.2986447618085 75.53899391773314 0.4498971579300671
1.6717012139216618 12.98781339154985 175.4120797484653 79.12010199876298 0.45833710516085124
1.6956390662530387 12.970286385801005 158.52583760347224 82.88710222790236 0.4670679737112078
1.7191050337174676 12.951059371768844 143.43031007955918 86.85288671201512 0.47611201824349153
1.742108523855857 12.9301794658769 129.91718870946403 91.02922426536036 0.4854843828734617
1.7645942496491203 12.907561428180964 117.79929067101538 95.42977354041162 0.49520531641014953
1.7865207872758397 12.883139281815986 106.93487089082173 100.0686084282127 0.5052939882636134
1.8078610947706595 12.856908489387763 97.1854706434421 104.96202023555246 0.5157752308572643
1.8285859107778182 12.828825111524548 88.42560770910404 110.12638997151834 0.5266710446370643
1.8486602709641131 12.798862627668317 80.55016461568526 115.57947924483962 0.5380053670045407
1.8680515121554608 12.766984310842101 73.46131278752357 121.34154360589739 0.5498077632008288
1.886727561883766 12.733166017210438 67.07925057390017 127.43386854614586 0.5621076001919937
1.9046567143373536 12.69738062759093 61.3224037388076 133.87912556964335 0.5749350704457549
1.9218056640996535 12.659595596784648 56.13175003791762 140.70241871522455 0.5883245050854639
1.9381341797655611 12.619767160734247 51.44732131565726 147.93164833870256 0.6023150673970187
1.9536284983098269 12.577914636825621 47.2123765276548 155.595576399694 0.6169435241233215
1.968258870615055 12.534036706535897 43.3839826363036 163.7273486140978 0.6322558638538225
1.981986345979247 12.488075279448301 39.92083871075421 172.3607977951868 0.6482939854866895
1.9947856097332823 12.440032569544478 36.78327250695453 181.53534024195736 0.6651116183474683
2.0066271180294795 12.389895238080438 33.93958511193892 191.29273502354965 0.6827625139747645
2.0174911262526147 12.337675253741416 31.359553492678838 201.67893060608597 0.701305793717623
2.027340491682368 12.283332050925015 29.020908854034897 212.74414281654103 0.7208051943000223
2.0361648546997113 12.226902562644444 26.89779800271182 224.5430382248263 0.741328565607515
2.043923601187097 12.168352704236973 24.967721479711987 237.1373943036517 0.7629552875538923
2.0505976316156094 12.107685654160179 23.20975378063783 250.59328060330725 0.7857656211203545
2.056180574022045 12.044958122461248 21.614593988602227 264.9841801716692 0.8098492722331915
2.0606495572851347 11.980176725467048 20.160444850132215 280.3918261915035 0.8353062488010101
2.0639785230415875 11.913332727601466 18.839757891211484 296.90516431662104 0.8622413449509347
2.066150987418957 11.844461695261266 17.635238974726157 314.62450507711407 0.8907752575281184
2.0671617928089714 11.773616796124218 16.538884888895016 333.659532400985 0.9210352620301965
