M[M_sun], R[km], Lambda[1], P_c[MeV/fm^3], rho_c[fm^-3]
0.24162668629717493 15.618656898711224 2160425.4255784233 3.5677272577965504 0.1711233750220791
0.2536391733982477 15.277441476502553 1723336.1033489748 3.78475129318619 0.1738873215668186
0.2660318096348459 14.981455222379742 1383123.148251338 4.0112578807908905 0.1766649257562568
0.2788077791188348 14.723571631943058 1116634.6213767994 4.2475052360317385 0.17945492800308901
0.29195338097932055 14.498656279392367 906136.3290063246 4.494117496001758 0.18226387550278292
0.3054833626904576 14.301531491562104 738896.878948689 4.751245085807721 0.1850873731027796
0.31939519639159747 14.128435261613419 605279.5349428138 5.019578715615939 0.1879322248602685
0.33368839348485413 13.976226988411984 497911.5988263185 5.299330846803583 0.19079482728656968
0.34836347163019465 13.842332286158964 411196.69594471465 5.591243365114414 0.19368174610594788
0.3634197491246449 13.724313995931125 340839.56593267573 5.89546674049874 0.1965877342320918
0.3788669373192019 13.620323703043427 283467.83946521487 6.212871852187542 0.19952061602120344
0.39469366921637866 13.528752757714381 236551.8876729753 6.54372861690135 0.20247679291942405
0.4109117306348567 13.448157099095512 198001.95489508534 6.888714289928774 0.20545955214766073
0.42751226308054335 13.37733859472285 166209.45838014103 7.24854469726672 0.20847216735396978
0.44450142528209136 13.315179231622006 139912.45787074507 7.623496701686365 0.21151047286496139
0.4618752641712558 13.260804368424063 118069.09759026498 8.014483342316106 0.21458007686092773
0.4796325006127809 13.213377099044214 99895.60362292326 8.422225398028894 0.21768289037687924
0.49778143640999384 13.172191389039758 84716.5128083734 8.847187955145118 0.220816734269567
0.5163119167575071 13.1365940039473 72010.10747789443 9.29019560902811 0.22398433137580345
0.535221865553316 13.10601458625718 61335.76359764193 9.752154903052979 0.22718892939525875
0.554520757445905 13.079958075189023 52357.55418303018 10.233874359347068 0.2304318775542267
0.5741920221225414 13.057964676165765 44372.0881442127 10.735859287897291 0.23371031165479228
0.5942441283617912 13.03968232210759 38368.55312398849 11.259285666179181 0.23702956137222006
0.6146698313474019 13.024620195856926 32938.98884338949 11.805122137218802 0.24039165536949442
0.6354619362181405 13.012509219148528 28094.263502921138 12.374346333726496 0.24379822413380606
0.6566249951448601 13.00309019826829 24401.53347962076 12.967693873550816 0.24724775016915918
0.6781467477238734 12.996032816677959 21053.49942768839 13.586397519431426 0.2507439735726951
0.7000262310467927 12.99109461291535 18195.414828975307 14.231697737996855 0.2542900362751413
0.7222474920540035 12.988028341878183 15749.374428028113 14.904782425705715 0.2578879194735411
0.7448268797490533 12.986661490506393 13652.227087267933 15.606741740189136 0.2615381347208415
0.7677366057424595 12.986759199376776 11851.470754488639 16.338719502849248 0.26524136372165374
0.7909718028309927 12.988115481861726 10303.115767630727 17.102387576936483 0.26900288392906957
0.8145333703920326 12.990639383214633 8969.375894520697 17.89919864685552 0.2728251232706123
0.838405817687554 12.994098592307004 7818.1851684175335 18.73059331757825 0.2767098477610263
0.8625769319008807 12.998353213902023 6824.504490728433 19.59776311486135 0.2806561824259628
0.88704091251765 13.003285971074034 5964.3207359147145 20.502863554369725 0.2846711431279053
0.9117887564650367 13.00878624370494 5218.877498265644 21.44768561545508 0.28875773696087753
0.9367998777062068 13.014665180656031 4572.402623227909 22.433809077687304 0.2929166668014445
0.9620676321772723 13.020856701009004 4011.0406606577353 23.463064224714657 0.2971501806878985
0.9875809316368874 13.027254107616843 3522.252267345144 24.537962193155217 0.3014651282556167
1.0133174804559077 13.03371536793694 3097.1548431057454 25.66055800365284 0.30586399224349864
1.039263743676239 13.040174138399538 2725.962926430558 26.832582064793552 0.3103463381693122
1.0654082949888959 13.046502245034947 2402.2377446603177 28.057235921910706 0.3149217183715472
1.0917261315904558 13.052624946456564 2119.320021449753 29.336706130411592 0.31959149930366276
1.1182140521991144 13.058460205222698 1871.8289525186444 30.673477735836624 0.32435852828286243
1.1448354518222752 13.06392541114302 1654.8993676628052 32.071178797516076 0.3292324323559934
1.1715891609710936 13.068932281017899 1464.6851294451258 33.53158637347291 0.3342098537185819
1.1984378421921988 13.07341447853192 1291.827237395458 35.05924125260632 0.3393044047147914
1.225370046183932 13.077279876316362 1151.131624450112 36.65638320476042 0.3445142016586712
1.2523567430095452 13.08045204858348 1022.0746993718616 38.32771947494102 0.34985161429768274
1.279388653451351 13.0829048590166 908.4011699888524 40.075818510685714 0.35531521039520425
1.306423865490049 13.084508006491474 808.2957090313563 41.905993770090134 0.36091863240155214
1.3334520527262428 13.085229240794304 719.9343664387189 43.82149142934397 0.366662541017833
1.360452827623837 13.085043352414557 641.9176742028592 45.827417487093676 0.3725570392314451
1.3873761821110218 13.083804439847691 572.9198539572221 47.92888414638341 0.3786108900224234
1.4142250004424142 13.081533409161564 511.8127868919117 50.13038445718555 0.3848284382266712
1.4409505349764737 13.07812140494333 457.774097147186 52.43761833857227 0.39121918290342933
1.4675305562601058 13.073531610612987 409.8295563546915 54.856745494882546 0.397793525418466
1.4939362155913412 13.06768668231738 367.2763372924544 57.393940035344386 0.40456050036817925
1.5201436367563341 13.060573480785854 329.5081123594678 60.05581276770732 0.41152985026674377
1.5461224621997944 13.052115783733942 295.89976206707024 62.849450496754635 0.4187120837978903
1.5718370417765846 13.042265279214751 266.0325470819657 65.78245908320906 0.4261185388170523
1.5972530834097398 13.030961768302802 239.40953076796424 68.86301064446474 0.4337614506598933
1.6223449545318946 13.018189804186028 215.68545518405784 72.09989532597538 0.44165402638128837
1.6470960904799143 13.00388109342657 194.50681040006228 75.50257812588265 0.4498105256242477
1.6714497518015725 12.987990389947116 175.60533417734788 79.08126131636814 0.4582463489021042
1.6953849292246461 12.970484024457152 158.71285914341533 82.84561206311967 0.46697262943337614
1.7188495943686668 12.951270391423263 143.59118098080896 86.8084569427164 0.4760114066758923
1.7418654187983014 12.930439319772553 130.0646320802902 90.98183639268282 0.4853789622996031
1.7643455726331982 12.907827103731426 117.93539671604813 95.37897137443238 0.4950938451144186
1.7862736827395638 12.88343086142164 107.05646570753346 100.01434774373415 0.5051768960605418
1.8076172080204531 12.857215958817807 97.29481083293027 104.90401984378528 0.5156520669037731
1.8283464316576763 12.829167776809323 88.52331820262248 110.0640979596322 0.526540408419119
1.8484244865824317 12.79922842090607 80.63789900793111 115.5127979565594 0.5378676264728973
1.8678233711077599 12.76738062757231 73.54269565210642 121.27010656522101 0.5496623435647666
1.8865037367946402 12.733591983033703 67.15159867418265 127.35727495697638 0.5619538774696815
1.9044390504022415 12.69783249074534 61.3898000054829 133.79721818168636 0.5747733598299095
1.9215785175014837 12.660020963915569 56.19493458036517 140.61444623319343 0.588153101236223
1.9379318488794373 12.620287103898836 51.50493790540197 147.83708433182153 0.6021331688249303
1.953435284794765 12.578473577136593 47.26407165048163 155.49415386771418 0.6167513182726813
1.9680741302904048 12.534621665231901 43.43516376872218 163.61813488875944 0.6320513683579828
1.9818106508068982 12.48869410961671 39.965286318657 172.24342803326962 0.6480772750542536
1.9946185043791946 12.440685544048248 36.823651463321106 181.40907074342678 0.6648816167050692
2.006473803370511 12.390589385447806 33.97750195427186 191.15674644511734 0.682518045676379
2.017356305849294 12.33842168073336 31.396530386604233 201.53231915689426 0.7010455728573346
2.027211426444418 12.284095102463372 29.053330283763614 212.58627978984256 0.7205290223794582
2.036035307754874 12.227673070462068 26.92574665336677 224.37246372739597 0.7410337235279039
2.043821950290802 12.169196364382362 24.992821320102983 236.9532779247721 0.762641352214684
2.050510288915055 12.108574176450306 23.235472333560942 250.39389394488418 0.7854295002833944
2.0561078609502936 12.045880823926545 21.636757608144453 264.7684382370219 0.8094902651195961
2.060591835382598 11.981139749405488 20.182146921560125 280.1580897577964 0.8349221833116398
2.0639383424439948 11.914342435176962 18.858390316762918 296.65204242440205 0.8618312421308771
2.066126736253682 11.845508297372422 17.65211484823369 314.34954663234384 0.8903351031382051
2.0671550240543892 11.774705535146639 16.554837484427708 333.36092540395174 0.920563636130941
