M[M_sun], R[km], Lambda[1], P_c[MeV/fm^3], rho_c[fm^-3]
0.24162668629717493 15.618656898711224 2160425.4255784233 3.5677272577965504 0.1711233750220791
0.25364475138538023 15.277251426965018 1723108.8854125254 3.7848346306911216 0.1738883603286142
0.26604084886943574 14.98126436489946 1383012.6722087013 4.011433071302929 0.17666704283020443
0.2788170091862247 14.72348982587614 1116427.8575633918 4.247778204917153 0.1794580940308045
0.29197271343637415 14.498367206037821 905823.833037609 4.494495404514745 0.182268083601783
0.3055090453035682 14.301182588527979 738616.7954945412 4.7517407637651905 0.18509272737073587
0.31942709872078134 14.12807380258401 605046.1897134103 5.020195812552374 0.18793862747916157
0.3337270457527714 13.975862997648221 497652.5258517172 5.300085606893263 0.19080242646829929
0.34840799423682933 13.84196863103169 410970.18224493245 5.592137671000314 0.19369039876140903
0.36347305761857596 13.72389838234544 340632.2701342162 5.896520681245793 0.19659763306662575
0.37892624710261374 13.619948076495064 283286.606982446 6.214098179288873 0.19953179864777362
0.3947591029556779 13.528417534345525 236381.79565166414 6.545126055318501 0.20248904656649563
0.4109860297734051 13.44781188266292 197837.0234572179 6.890309813430793 0.2054731402953394
0.42759520005669616 13.37700801938894 166054.8611587318 7.250353274772922 0.2084871292521799
0.4445909488528632 13.314886788048154 139775.31926029074 7.625513332823022 0.21152652654549875
0.46197469645141476 13.260556211768048 117962.81555727118 8.016743197013254 0.21459755866402422
0.4797404763693492 13.213118514125934 99796.1394688981 8.424746094323119 0.21770184248914304
0.4978988736563151 13.171949850551773 84629.16598879291 8.849960197483739 0.2208368064885866
0.5164391155909536 13.136366094201527 71925.74802119768 9.293264254393106 0.22400593483048076
0.5353590262681514 13.105812546338866 61263.83439090174 9.755540752867915 0.22721211071532657
0.5546668289432326 13.079786770854463 52294.87067671021 10.237599478804396 0.2304566853966387
0.5743515878905178 13.057814173891746 44720.736697523185 10.73990749068763 0.23373630237068255
0.5944093179570052 13.039505145547503 38321.00910119748 11.263717821952199 0.2370572535616955
0.6148490021724813 13.024478522699695 32895.32227073965 11.809964422847221 0.24042110454529037
0.6356547503512423 13.01241553440702 28285.4018800618 12.379626558928077 0.243829488739033
0.6568265475338153 13.003002215388353 24365.719895226484 12.973387791104514 0.24728029426699533
0.6783597508846372 12.995987167926883 21023.27280991195 13.592585970721615 0.2507784292114936
0.7002502316442252 12.991046818963328 18168.346426133703 14.238413896471277 0.2543264717626472
0.722485626206593 12.98799755525665 15725.35226180608 14.912061595934293 0.2579264071904436
0.7450754624747576 12.98663909003377 13630.875680294577 15.614550483414083 0.2615780478364633
0.7679979068441783 12.986755817709172 11833.64123217195 16.34716354663957 0.2652834551621092
0.7912443710941699 12.988140141980084 10286.073399025265 17.11150928971415 0.2690472397294362
0.8148228816387831 12.990666697293937 8954.052623899413 17.909043205580318 0.2728718349978418
0.83870423710626 12.99413502240673 7805.473815645056 18.7411170618928 0.27675819892102016
0.8628871352668684 12.998407858725233 6812.225788065866 19.609102852158475 0.28070705667561696
0.8873710652079316 13.00336034810555 5953.77851503577 20.515073848610683 0.2847246505305052
0.9121283910690868 13.008857997707613 5209.768172715888 21.46082476642538 0.2888139950004052
0.9371498827044751 13.01475682963201 4563.943943835954 22.4478223594099 0.2929748699957675
0.9624356366516313 13.020958373589565 4003.459655299635 23.47812745645812 0.29721135694773093
0.9879561573952461 13.027352673041992 3515.455788627705 24.55414625735891 0.301529419859762
1.0137014735705177 13.033808508498497 3091.1068522789847 25.67780026326277 0.3059305334440051
1.039667398242226 13.040262389017226 2720.647836317499 26.85109326220206 0.3104162701398186
1.0658212345308604 13.046587175043676 2397.4963598264053 28.077102683664986 0.3149952141620064
1.0921547808753151 13.052721163659784 2115.0697614250034 29.357858057069077 0.3196676332522806
1.1186549116768678 13.058551277873427 1867.8368059569475 30.69616729915222 0.32443856718770525
1.1452880588553114 13.064004714956363 1651.5980810250705 32.09537772710519 0.329315716317182
1.1720520150975924 13.069016243525137 1461.5589099472047 33.55748637165274 0.3342971393828495
1.1989097948994265 13.073480541931454 1294.99576133304 35.087010296103706 0.3393962294134325
1.225857047992507 13.077341274760823 1148.675542344943 36.68594072624557 0.34460954964757634
1.2528541425799056 13.08049672754323 1019.809582551811 38.35936219124609 0.34995173474225066
1.279898614724552 13.082944422815308 906.3883483583793 40.10955037543745 0.35541956551565823
1.3069429527079577 13.084525039565792 806.5342175420092 41.94191091207815 0.3610272153632051
1.3339818857327508 13.085238067328406 718.3715675617501 43.85999642564371 0.3667769977801535
1.360990807390224 13.085032114076773 640.3780286764207 45.86842967596094 0.37267629710558636
1.3879239782850832 13.083767592579695 571.6062677807394 47.97257865360501 0.37873525869486985
1.414774544370214 13.081462184601587 510.65005920302735 50.177240264092255 0.38495973336124045
1.4415061971436611 13.078023991999206 456.7228631745497 52.48756108191715 0.39135630696472545
1.4681014020694094 13.073417994715205 408.8716169464819 54.90999625039909 0.397936866875377
1.4945110157582666 13.067547948240962 366.3947810934243 57.45073778298517 0.4047104777147584
1.5207236203594796 13.060398854604234 328.7281117704198 60.11641599433789 0.41168691448734857
1.5467080496024463 13.051908473593437 295.18323350422367 62.914138958735585 0.41887672107659263
1.5724242875325234 13.042021274176378 265.3703263846786 65.85153574666653 0.42629127351751667
1.5978378703883787 13.030684298577322 238.8244819677262 68.93680382321587 0.43394284860500565
1.6229358900218414 13.017860616859636 215.15461139585867 72.17876103953398 0.44184469846531693
1.6476880912493352 13.003519358983105 194.0179913449169 75.58690270274138 0.45001113179424423
1.6720376644168542 12.98757964443368 175.16612916538432 79.17110080594472 0.458456084794542
1.695973894601936 12.970019889893361 158.30371634137177 82.94168857335573 0.4671934129740784
1.7194542611868122 12.950803520053487 143.22555718709935 86.91134155892402 0.4762443897114083
1.742429822634697 12.929826468747635 129.73651652365274 91.09157194635083 0.48562308351430905
1.7649174160259258 12.907201779597505 117.63240702811503 95.49661459977153 0.4953519806192685
1.7868442698862779 12.882761340641611 106.78481072536283 100.14000106409047 0.5054480504745558
1.808181625421637 12.856496462441728 97.0507629246659 105.03833461270342 0.5159372845971055
1.828895824346354 12.828363213783666 88.29997298175621 110.20816409546441 0.5268422315753419
1.8489682663687468 12.798376744587541 80.43327977476619 115.66721888101992 0.5381866068162684
1.8683437638807232 12.766431618096885 73.35960130105737 121.43554262443185 0.5499991107557676
1.88701855958938 12.732606450783612 66.97964312694484 127.53457547289392 0.5623095942801746
1.9049421267991788 12.696780598919995 61.23281141209602 133.9869057017702 0.5751478618920073
1.9220811616863662 12.658954551748078 56.05236672716106 140.8181821281166 0.5885500562363786
1.9383928462741316 12.619057748074422 51.371750421432836 148.05608818595928 0.6025544336344855
1.9538876943748602 12.5772050715848 47.14648589115973 155.72904418964458 0.617196458945592
1.968500739529266 12.533263648052184 43.32484736256818 163.8708008548912 0.6325240580311509
1.982213524956854 12.487256949123038 39.86405763881714 172.51525816073357 0.6485791796633246
1.9949994747333744 12.439168407295304 36.73210736997003 181.70151640344997 0.6654143105297902
2.006833558408767 12.38900049046512 33.89099592221211 191.47170595361962 0.6830842521621847
2.017676788069573 12.336716219619767 31.31572970120149 201.87188652764056 0.7016482714448502
2.0275124842064747 12.282322831575252 28.98148641097993 212.95191161001352 0.7211686733737903
2.0363166243225597 12.225844483859603 26.85958934875969 224.76754266770737 0.7417166268817277
2.0440565894926994 12.167241871393179 24.93202001139333 237.37972798487442 0.7633684887415282
2.050713453907882 12.10652263764996 23.178790409240374 250.855496820712 0.7862073077644008
2.056282614713773 12.043765037964388 21.58632769675729 265.2681545031547 0.8103218220193442
2.06072520345056 11.978905455476566 20.13590229747691 280.69902754767946 0.8358102716698516
2.0640261833764555 11.912000278696095 18.815297010298956 297.2383587173614 0.8627811795822783
2.066183350562822 11.843087001658551 17.61260066374775 314.98645450549054 0.8913546673729756
2.067170385997087 11.77218520686353 16.51834238166906 334.05262373712947 0.9216561183957224
