M[M_sun], R[km], Lambda[1], P_c[MeV/fm^3], rho_c[fm^-3]
0.24162668629717493 15.618656898711224 2160425.4255784233 3.5677272577965504 0.1711233750220791
0.2536397880298442 15.277420165112108 1723274.1114578224 3.784759546216567 0.17388742443686084
0.2660327140886096 14.981404624438765 1383153.5286405585 4.011275229909632 0.17666513541011805
0.27880424563855105 14.723720228613477 1116660.1098299127 4.247532267776623 0.17945524153059372
0.2919550201001009 14.498631201783075 906115.8159981793 4.494154919282269 0.1822642922196969
0.3054859744108982 14.30146367379257 738853.7320595551 4.751294170825404 0.18508790331465072
0.3193979990354068 14.128397530121413 605266.1873841998 5.019639823496201 0.1879328588781117
0.33369223830671785 13.976259615343892 497871.5058264684 5.299405585766676 0.19079557978391365
0.34836730073060396 13.842315208241713 411176.0111092013 5.591331921305081 0.19368260291145353
0.36342524482898586 13.724270343339104 340814.6130852699 5.895571102758667 0.19658871442452244
0.37887204670124913 13.620298324193632 283443.7848394376 6.212993282773029 0.19952172332193113
0.3947000820407181 13.528711878386552 236533.70347187063 6.543866989278778 0.2024780062582422
0.4109192297489764 13.448121063881981 197986.69761899704 6.888872274443945 0.20546089761008757
0.42752025805441535 13.3773094648578 166202.51014017191 7.248723775608838 0.2084736488232003
0.44451037227794 13.315167442919375 139897.23359884738 7.623696378480297 0.21151206242063283
0.4618848389813867 13.260786477193694 118066.66941383432 8.014707099174093 0.2145818078011239
0.47964236710823893 13.213369582774517 99881.65379265604 8.422474978786411 0.21768476687526828
0.4977935926450203 13.17216574883256 84709.78083056459 8.847462439213716 0.22081872165150165
0.5163245730833271 13.136567298079171 71996.53222493005 9.290499436792617 0.22398647034220703
0.5352349764473442 13.10599714930572 61328.541674923894 9.752490133356442 0.22719122455936402
0.5545345928848825 13.079944685350776 52347.7953927439 10.234243176083693 0.23043433372981675
0.5742076871768416 13.057962332694574 44770.96329583748 10.73626008838709 0.23371288491808925
0.5942602845955278 13.03964442210985 38362.408211383314 11.259724475539109 0.23703230306104173
0.614687713892548 13.02458768086593 32935.18732368922 11.80560154619295 0.24039457097593345
0.6354805336253954 13.012503931884245 28322.184852426708 12.374869094623634 0.2438013194398684
0.6566454540997112 13.003079978251877 24396.59019360735 12.968257585871436 0.2472509721176227
0.678167509390711 12.996026457391038 21050.365566161978 13.587010184677832 0.2507473847286443
0.7000476916784673 12.991094576222093 18192.491856896402 14.23236263919496 0.25429364339659155
0.7222723976814601 12.98801446982644 15746.844954989692 14.905503056739223 0.2578917297214592
0.7448517335354649 12.986655525979344 13650.04332426118 15.607514790948711 0.26154208604353957
0.7677625729679085 12.98674786856471 11849.556405139976 16.339555437349816 0.26524553064547945
0.7909982929843186 12.9881293894286 10301.372841463832 17.103290587964736 0.26900727496591476
0.8145634639413214 12.990639611489565 8968.316144844146 17.90017320506679 0.27282974747964056
0.8384359856332098 12.994100138712932 7816.835700152476 18.731635101441814 0.27671463421884596
0.8626077685838561 12.998359074522433 6823.330288595798 19.598885663520516 0.2806612185938421
0.8870733612628133 13.003300060933313 5963.359650287739 20.504072267187542 0.28467643989488683
0.9118241134848721 13.008794889671824 5217.983869227007 21.44898626138537 0.2887633059501009
0.936833898553877 13.01468045133708 4571.518888412759 22.435196240403176 0.2929224282856356
0.9621030167937034 13.020866385263007 4009.9986976181794 23.464555302993894 0.29715623639983296
0.9876164802229203 13.02727232178072 3521.5495172037677 24.539564200749098 0.3014714922712785
1.0133553161989972 13.033728523359432 3096.614713907834 25.662264741661172 0.30587057887417196
1.0393048161622176 13.040171497012205 2725.508336107785 26.834414386846575 0.3103532603520831
1.0654495527519363 13.046508576599908 2401.7635542063467 28.059202399244807 0.3149289932262959
1.0917700136462876 13.052634286634266 2118.9047887287647 29.338799796361872 0.3195990352155663
1.1182571640515653 13.058470109168448 1871.4104526382378 30.67572357195483 0.32436645061529595
1.1448794981128034 13.063927014135794 1654.573032293183 32.07358733340171 0.32924076201002944
1.1716338125889627 13.068948658105974 1464.3488527525276 33.5341499218296 0.3342184931408569
1.1984798124168947 13.07340664056207 1297.4840713419137 35.06198976046141 0.339313493285146
1.225417759622966 13.077281933871884 1150.8676156861616 36.65930870008146 0.34452363885371995
1.2524054678429422 13.080458347257053 1021.9362401504004 38.33085559536416 0.34986154883967735
1.2794397907157402 13.082907017450204 908.2088982390229 40.079157085239906 0.3553255388295292
1.3064748092707463 13.084505941317557 808.0951740506185 41.90954859009828 0.36092937916098966
1.3335038828699737 13.08522797001017 719.8050457450075 43.82530232303207 0.3666738689647231
1.360501584745129 13.085054137045661 641.736462795651 45.83147647393728 0.37256884221381464
1.387431196540569 13.083800037022465 572.7828025902127 47.93320855172287 0.3786231986759679
1.4142801934115414 13.081531687872461 511.70681211061907 50.13502166536196 0.3848414321950124
1.4410059971401887 13.078114885449141 457.67267485818735 52.442560992705886 0.3912327535798278
1.4675878360902899 13.073519885996502 409.73228451227334 54.862015464933044 0.3978077112300585
1.4939926937058847 13.06767437308761 367.21104886610794 57.39956096200169 0.4045753427114128
1.520200771636315 13.060557586305638 329.42779797671193 60.06181022085314 0.41154539375108173
1.5461806787335024 13.052094988829573 295.82773459798415 62.85585214972887 0.41872837651366374
1.5718952308832297 13.042241280012451 265.975635964951 65.78929490463831 0.42613563263004073
1.59731108789254 13.030932610493632 239.34856746077446 68.87031310962732 0.433779401535532
1.622402924254814 13.018153970819546 215.6221308077088 72.10769964991795 0.4416728947417383
1.6471539971483913 13.003845244145893 194.45790508781135 75.5109225207783 0.44983037674195636
1.6715083030726825 12.987949955766735 175.56255391925416 79.09018727591801 0.45826725333392754
1.6954437040916046 12.970436478263895 158.66940507743095 82.8551191129046 0.4669944766060929
1.718907748078498 12.951228146413275 143.55477979173085 86.81863751361423 0.47603446066003974
1.74192219215303 12.930384229225838 130.0311835823129 90.99269472383017 0.4854031180895979
1.7644021902021947 12.90776613580582 117.90491774229345 95.3906119762334 0.4951193871939901
1.786329792537389 12.88336362339877 107.02429918591909 100.02678074916456 0.50520372594687
1.8076730909989023 12.85714397735758 97.26738477742381 104.9173096716426 0.5156802878810847
1.8284020690324336 12.829088755731776 88.50034508601955 110.07837104640437 0.5265703413433875
1.8484793187212316 12.799142625325723 80.61933560120721 115.52807667563643 0.5378991870342299
1.8678749782158088 12.76729015163845 73.52237858503484 121.28647487176976 0.5496956634385847
1.886555022126381 12.73349519550784 67.13419063563592 127.3748246675621 0.5619890995987955
1.9044889404899166 12.697727566090641 61.374042738074785 133.81598532279057 0.5748104119935948
1.9216437837097837 12.659971119497012 56.181521218327426 140.63460291053948 0.5881923741088901
1.9379784742137345 12.620165833257785 51.49140836686433 147.85875113936072 0.6021748460072228
1.9534766702842457 12.578330209630597 47.25507741628355 155.51739197247164 0.6167953568073636
1.9680681551991426 12.534607579842902 43.43481307456575 163.65807718987148 0.6795357662450195
1.979963369147886 12.489736435277935 40.2477993841795 172.6083946185088 0.878881555918707
1.9882954356224518 12.441970029354746 37.65633702902961 182.56173246227124 1.0854102311240295
1.9930984499348325 12.390042036777466 35.527251131023455 193.6132571372777 1.299914814007246
1.994628452026123 12.333546128288411 33.76570096884366 205.86628966264558 1.5233112790099572
