M[M_sun], R[km], Lambda[1], P_c[MeV/fm^3], rho_c[fm^-3]
0.24162668629717493 15.618656898711224 2160425.4255784233 3.5677272577965504 0.1711233750220791
0.25364370416189386 15.277301464171904 1723264.3619661855 3.784814476609034 0.17388810911770364
0.2660394079751321 14.981278657291517 1383051.3994597455 4.011390703274526 0.17666653083758507
0.27881426092052514 14.723522926357383 1116491.4512050634 4.247712189436888 0.17945732835071665
0.29196745467925705 14.498476473365681 905896.0269920415 4.494404009152695 0.1822670658932148
0.305503890236971 14.301230960296934 738660.7376185284 4.751620885072472 0.18509143245206258
0.3194196038438525 14.128150034560772 605113.2156318707 5.020046567334516 0.18793707900242293
0.33371704485191783 13.975982882661613 497701.6347670127 5.299903065757925 0.19080058858195695
0.34839715310269775 13.842059136718767 411025.1791634728 5.591921378046589 0.19368830606758158
0.36345892418881437 13.72402098140656 335738.9849731979 5.896265776950072 0.19659523895153683
0.37891230455501995 13.620024851456025 283319.3474618131 6.213801578755921 0.1995290940080434
0.3947437518953734 13.528488330402459 236404.81798752217 6.544788066355384 0.20248608285988984
0.4109685759650272 13.447891732462969 197879.2049703482 6.889923910926466 0.20546985378767485
0.427575457400107 13.377082836417072 166089.1274114248 7.249915837243789 0.20848351044360702
0.4445696546025892 13.314960433767979 139806.92736939274 7.625025569171605 0.21152264363320247
0.4619506082979015 13.260607551560012 117993.38737017932 8.016196599149831 0.21459333028764527
0.47971447370629805 13.213177520454671 99817.71642615837 8.424136399699682 0.21769725843791224
0.4978712323657135 13.17200006510978 84651.81991151017 8.849289654032043 0.22083195146749518
0.5164078035323687 13.136427126731256 71944.49132946503 9.292522010206866 0.2240007093851361
0.5353261400906375 13.105863609068335 61282.32913866976 9.75472177502964 0.2272065035595355
0.5546314688491143 13.079842830429328 52305.53732904696 10.236698428561514 0.23045068475352193
0.5743131619867116 13.057854177141603 44735.16747496282 10.738928283047622 0.23373001555431314
0.5943684467400937 13.039563318886978 38333.02675247186 11.262645730448586 0.23705055511458004
0.6148053412756022 13.024513244820556 32905.369840146486 11.80879311368164 0.24041398103127745
0.6356059126067719 13.01246044471244 28063.953717966724 12.378349303135877 0.24382192601271122
0.6567767827729802 13.00302738922909 24373.003617549817 12.972010454072318 0.24727242197332291
0.6783088543584027 12.995979635193065 21030.28231953435 13.59108899311332 0.25077009444123494
0.7001954910085688 12.991055466007067 18174.84252382253 14.23678925122754 0.2543176579829091
0.7224288293975007 12.98799251540206 15731.964929128037 14.910300740220771 0.2579170968825266
0.745015516473919 12.986654068297286 13635.842537593293 15.612661506787637 0.2615683926409566
0.7679357866691737 12.986750035572356 11838.238802286889 16.345120867252604 0.2652732729176869
0.7911781160999448 12.98813929332952 10290.162943022404 17.10930265511632 0.26903650961261616
0.8147517248260866 12.990663889535455 8957.705081714525 17.906661683568608 0.2728605348461832
0.8386331269241087 12.994117205064631 7808.5680728073785 18.738571215706333 0.2767465020750495
0.862813078452473 12.998400155826767 6815.61993736186 19.606359578048224 0.28069474933477667
0.8872871579960547 13.00333907011387 5956.332184637531 20.51211994239958 0.28471170605547774
0.9120462385784185 13.008840520318808 5211.993276919852 21.45764611970916 0.2888003849556611
0.93706586157697 13.014729477258507 4566.1122967473375 22.44443221365629 0.2929607892603633
0.9623420710056453 13.020928825549019 4005.1484029060507 23.474483265664382 0.29719655680612295
0.9878675201107829 13.02732386521869 3517.2064142094955 24.550230867538332 0.30151386587472767
1.0136075961235658 13.03377865384291 3092.388977266415 25.673628830865468 0.30591443508301136
1.0395700749879186 13.0402405038653 2721.8825386050685 26.846614788055312 0.310399351270929
1.0657203111913782 13.046565103469327 2398.7329192080483 28.072296202830174 0.31497743289938035
1.0920511658239827 13.05269490237791 2116.1349383389347 29.352740605192427 0.3196492135676561
1.1185487704832295 13.058530691443867 1868.9457836623158 30.69067777591288 0.3244192025387662
1.1451775547390313 13.063988237411143 1652.3810388681682 32.0895340498622 0.32929563801775413
1.171940094479299 13.069004284619437 1462.3835041515517 33.55121999122142 0.3342760210347051
1.1987941032764247 13.073462847051289 1295.66394897137 35.080291634694134 0.3393740126215843
1.2257385404718049 13.077323460702262 1149.2610761750323 36.678789281707516 0.3445864801945164
1.2527339064481346 13.080492490018448 1020.3891060898309 38.35173894557508 0.34992770271505996
1.2797740215193718 13.082929854151992 906.8764054421338 40.101388779635506 0.35539431626486
1.306817600457549 13.084518505372714 806.9037030535981 41.933220495149804 0.3610009429162383
1.3338533214954709 13.085236171214186 718.7593459600096 43.85067974829449 0.3667493037968409
1.3608607410036622 13.085033133779028 640.7496924388071 45.858506260637554 0.37264744116182
1.3877905649886126 13.083778808140908 571.9150579600243 47.962006112220074 0.3787051658291977
1.4146473502378347 13.081491381285943 510.92981321141446 50.16590265879308 0.3849279641417622
1.4413698762069553 13.078040052046612 456.965236402265 52.47547641172664 0.391323126988117
1.4679631871423506 13.07344686187334 409.1054386294125 54.89711100277091 0.3979021821061232
1.4943687648148631 13.06758592046994 366.59229564777496 57.43699411064023 0.40467418684767004
1.5205834743913214 13.060441683286713 328.90662778940015 60.10175132714929 0.41164890835053924
1.5465662959573767 13.051958552224821 295.3506060502732 62.898485576884845 0.41883688197528346
1.5722824062878977 13.042081032091415 265.51733299311337 65.83482031075894 0.42624947451232287
1.5977061558596375 13.030756361651784 238.97511990538104 68.9189468565172 0.4338989527176093
1.622792985670292 13.017941597367415 215.28019168412266 72.15967635689519 0.4417985578035824
1.6475449392226382 13.003605130252776 194.1372703771632 75.5664967801064 0.44996258658788163
1.6718940658858148 12.987674686092404 175.26899276330184 79.14937864310397 0.45840540723715223
1.6958307600747353 12.970134836362678 158.3977138287444 82.91843822376956 0.46713998373844534
1.7192960805272053 12.950895717694928 143.316279203158 86.88644332880067 0.4761880074703412
1.7422976540056592 12.929993703214492 129.80742016143645 91.06501547225733 0.48556400513453774
1.7647780732683347 12.90735071762037 117.70471519337536 95.46814403759936 0.49528950984869513
1.786706290075248 12.882920704627493 106.849659101164 100.10959162321394 0.5053824282204205
1.8080447917545883 12.856671512069664 97.10448804670384 105.00582859565891 0.5158682580017763
1.828756913704706 12.828543003344679 88.34857542223273 110.17338949194793 0.5267695271297035
1.8488368628475202 12.798586399639596 80.48228737176821 115.6298458281815 0.5381094069855533
1.8682251743073561 12.766683321347477 73.39540568483676 121.39550312138621 0.5499176050004076
1.886896071763869 12.732841801785256 67.0237579098178 127.49172386386766 0.5622237153530257
1.904821299313685 12.697034581178755 61.272483472421584 133.9409954987024 0.5750572208961598
1.921964040402496 12.65922716924054 56.08767107572692 140.76887102625744 0.5884539794578926
1.9382794272058204 12.619348525026584 51.403257408713216 148.00308086804262 0.6024524714211942
1.9537794540115554 12.577512583197871 47.17286940615645 155.6721909031789 0.6170887162766453
1.9683974359829477 12.533595274900323 43.34864644206139 163.80975704992684 0.6324100276961682
1.982115401973892 12.48760522323097 39.889132675599136 172.4494617355837 0.6484576937583176
1.9949087597722288 12.439537350154955 36.75403300934859 181.63072882785775 0.6652853699793235
2.006747198764901 12.389387960597105 33.90926887049185 191.3954675131469 0.6829471974034044
2.0175971478182357 12.337124814464689 31.33445715298457 201.7896901017719 0.7015023808969422
2.0274385587114487 12.282749561688298 28.998600140404992 212.863404472978 0.7210138354327605
2.036252429480139 12.226294253571039 26.875537041094727 224.6719055488413 0.7415513158449708
2.0440008677610813 12.167711571572204 24.9482193054104 237.27649493638418 0.763192466910703
2.0506639937149056 12.107018395914793 23.192712104255833 250.74392108458392 0.786019566921178
2.0562407126950664 12.04428409709053 21.597691024736346 265.1471806230226 0.8101205144543702
2.060691928051392 11.979446503905187 20.145552280839986 280.5681948030154 0.8355956755175479
2.0640035985041427 11.912561432865871 18.825277186855864 297.0964144455277 0.8625512044281749
2.0661689197105093 11.843673421477698 17.621462917292828 314.8322588064512 0.8911078303867734
2.067166601464786 11.772793649641349 16.526717152595634 333.8851595427583 0.9213916220776585
