M[M_sun], R[km], Lambda[1], P_c[MeV/fm^3], rho_c[fm^-3]
0.24162668629717493 15.618656898711224 2160425.4255784233 3.5677272577965504 0.1711233750220791
0.25364516512941737 15.277267155266717 1723128.706436016 3.7848464109293136 0.1738885071636003
0.26604250675792274 14.981222408523445 1382976.860304044 4.011457835936309 0.17666734209618373
0.27881901465757347 14.723450132478686 1116324.6427124375 4.247816791999898 0.17945854158281485
0.2919760044735495 14.4983082723988 905853.4396564496 4.494548826837158 0.18226867847174175
0.30551258557560357 14.301130922760429 738590.7436636792 4.751810835534948 0.18509348427958322
0.3194308760305658 14.128039510268302 605020.5302723435 5.020283050182354 0.18793953260324325
0.3337322771598176 13.975830195882034 497602.9606854947 5.300192307429164 0.19080350076564762
0.3484143365397547 13.841914944271053 410933.9505460369 5.592264101099992 0.1936916220074031
0.3634798722047787 13.723855710454279 340609.80592370033 5.896669681711952 0.1965990325105358
0.37893403499930656 13.6199059646754 283242.86235954444 6.2142715535990725 0.19953337961272638
0.39476945727317564 13.528346117378453 236364.55575458068 6.545323623717623 0.2024907789744541
0.41099651572698437 13.447769740155344 197820.10621119186 6.890535390452959 0.20547506140391988
0.42760693220101936 13.376980867182622 166043.64875564535 7.250608977634697 0.20848924461642435
0.44460484617428503 13.314830366500159 139769.1503454171 7.625798455020338 0.21152879630152235
0.4619864558145387 13.260486095022548 117946.80702306585 8.017062712398268 0.2146000303738444
0.4797557974532386 13.213082022942709 99775.62468203591 8.425102494941443 0.2177045221235539
0.4979163458569635 13.171912253213781 84616.9756038707 8.850352169421988 0.22083964453289628
0.5164577277713067 13.136325923097347 71919.23037916736 9.293698141818835 0.22400898942500763
0.5353782610671063 13.105782977504845 60664.541839016 9.756019498265049 0.22721538845973005
0.5546886171394527 13.07974764391569 52287.201917559774 10.238122037581995 0.23046013961241577
0.5743741562762493 13.057790078949376 44715.078755862785 10.740479906123362 0.23373997745509206
0.594434058499431 13.03950376182243 38314.43838587725 11.264344537651073 0.2370611692927233
0.6148741142763172 13.024481826224049 32889.10346279102 11.810649141935116 0.24042526877977335
0.6356828818861325 13.012401114006499 28281.2866906753 12.380373215593215 0.24383390974855143
0.6568548937462922 13.002993122976036 24360.8272579446 12.97419295652927 0.24728489626238961
0.6783898699461518 12.99596907397381 21019.298302711028 13.593461080142806 0.25078330158629497
0.700281711700139 12.991054288383525 18164.11224721238 14.23936364310477 0.25433162418448635
0.7225194304861441 12.98798818906382 15721.91842308888 14.913090974586586 0.25793184990340545
0.7451106131346872 12.986644473713286 13627.922806998155 15.615654764831158 0.2615836921905686
0.7680349119208936 12.986751411384235 11831.203766820312 16.348357687485315 0.26528940765472436
0.7912825999777217 12.988156581857014 10285.485744266238 17.112799284469812 0.26905351253710413
0.8148600912906103 12.990673428324834 8951.643402034586 17.910435446209448 0.272878441080077
0.8387473863770871 12.994145579106508 7803.868901401163 18.742605372743316 0.27676503693930554
0.8629308584770592 12.998418340534561 6810.585309200674 19.610706588183287 0.2807142516277369
0.8874170728049967 13.003374352842696 5952.2241567868705 20.516800730309495 0.28473221799386667
0.9121756659832128 13.008873192365005 5208.468967161771 21.462683043053463 0.28882195160279395
0.9372004779610695 13.014770312780543 4562.759823351346 22.44980428923029 0.29298310180390164
0.9624864717788313 13.020979452122566 4002.2663223799846 23.48025791579347 0.2972200093761129
0.9880120218342832 13.027351631809822 3495.8522885857014 24.556435276412724 0.3015385130458144
1.0137569646032214 13.033828381101483 3090.348890986141 25.680238980444216 0.3059399449232787
1.0397248903213163 13.040271652748546 2719.9287065917306 26.853711496995043 0.31042616135940215
1.065879383867921 13.046605560950356 2396.8217703779587 28.079912694826685 0.31500560961518004
1.0922159856897178 13.052729690486524 2114.5873041818077 29.360849884021345 0.3196784019923176
1.1187170098875867 13.05856492216931 1867.2972056918045 30.699376668382964 0.3244498884456286
1.1453520109235689 13.064017780572351 1650.9309330665155 32.09879416232039 0.32932745485207604
1.172118589991091 13.069027718897102 1461.1654523086754 33.561149955441884 0.33430948603795024
1.1989765857557246 13.073490676377382 1294.5938977283404 35.090938323959236 0.33940921833666
1.2259261925556464 13.07734866498906 1148.345309148893 36.6901217974537 0.34462303713607784
1.2529249591788478 13.080511459314563 1019.4922826892641 38.363813277224 0.34996575078528486
1.2799702149693897 13.082950311205089 906.1093096837834 40.11432207848125 0.3554343275707527
1.3070238434726154 13.084552045116473 806.2351943768065 41.94699181638712 0.36104257570668474
1.3340576053657425 13.085236108574973 715.1464146314318 43.865443509384676 0.36679318933005595
1.3610678587461076 13.085028835339402 640.2078195469801 45.87423152352134 0.3726931680901706
1.388008444728139 13.083778999073912 571.3887645107973 47.978760051903095 0.37875285294982497
1.4148533777410093 13.081452536501784 510.4960125719785 50.18386901013244 0.38497830783814796
1.4415857853804408 13.078008016826715 456.5650384050347 52.49462665060496 0.39137570636910235
1.468181202112894 13.073402183257315 408.7268665578088 54.9175299345664 0.39795714619825184
1.4945929876688198 13.067526925707869 366.2664376905917 57.45877341058174 0.40473169619885485
1.5208056183253877 13.060374820089987 328.61759618339715 60.1249901554449 0.41170913597631026
1.5467903670053285 13.051877343552178 295.08433495987657 62.92329125523174 0.4189000143988152
1.5725083038408298 13.041986141587042 265.2736217482498 65.861309067074 0.4263157129083127
1.5979213265319605 13.030643306045517 238.7408323428559 68.9472446455553 0.43396851417125054
1.6230306579586782 13.017827028525588 215.0649330996505 72.18991976536594 0.4418716766972187
1.6477725061372992 13.003465498115997 193.9505680781116 75.59883402596729 0.4500395161294464
1.6721207664299187 12.987520475644647 175.11377980427395 79.18380180119877 0.4584857160711609
1.6960576630048276 12.969958098122223 158.2498982659863 82.95528319177548 0.467224653367613
1.7195368343306818 12.950732533541188 143.17426625649622 86.92589980072272 0.4762773569662911
1.742519003038712 12.929781426975419 129.684780504003 91.10709987058644 0.4856576274301099
1.7649991731181351 12.907115569014646 117.58454315116103 95.51326183440571 0.49538850836920273
1.7869102771875018 12.882634086408954 106.74594331680409 100.15778210564152 0.5054864211908143
1.8082608964932916 12.856392975695467 97.01348730045817 105.05734168883126 0.5159776461631034
1.8289636999287462 12.828232289538839 88.27384356668583 110.22849780561843 0.5268847439543493
1.849045354775748 12.798257081972041 80.40738450790008 115.68907215047396 0.5382317481299769
1.86841714261192 12.76630314032594 73.33011259472129 121.45895522183403 0.5500467702243187
1.8870942652118168 12.732465667834969 66.95806479621605 127.55958984113087 0.5623596585577195
1.9050121445209756 12.696632128275773 61.20933612741259 134.01375149110947 0.5752008638157066
1.9221524557955298 12.658794601905862 56.03357674510653 140.8470168030884 0.5886062371484964
1.9384588435113264 12.618888572537285 51.35279856447495 148.08708447357174 0.6026140565358694
1.9539506186753315 12.577024634805841 47.12894524370331 155.76228967311758 0.6172594624646932
1.968559584080251 12.533069159393545 43.308436731897174 163.90649705857402 0.6325907388362866
1.982271299350056 12.487054680676378 39.84994992104502 172.55373386593303 0.6486502208461288
1.9950524172148019 12.438951974089747 36.71778827185049 181.7429111229971 0.6654897115854155
2.0068835037443913 12.388772439702967 33.87799751139329 191.51628858153302 0.6831643988870729
2.017723557967542 12.336477299279872 31.305779345958467 201.91995369062403 0.7017335859177112
2.0275536906129874 12.282074162683292 28.9707721211318 213.0036696182388 0.7212592209125972
2.036354684487141 12.225584907548624 26.850647103467264 224.82347075193277 0.7418132999067701
2.0440909242976244 12.166965828853078 24.924724085502753 237.44009868912642 0.7634714263380252
2.0507424426993603 12.106234009983396 23.17189005091968 250.92074644970438 0.786317098037032
2.056306500117732 12.043461901282145 21.57929657232633 265.3387731268409 0.8104391308852062
2.0607429884466875 11.978592665237592 20.128533349371082 280.7755408733845 0.8359357713323284
2.0640397907395256 11.911667738729914 18.809286651384987 297.3213711683302 0.8629156746271113
2.0661872258027296 11.84273999678203 17.608135483440122 315.07663291060726 0.8914990252628403
2.0671722880370025 11.771830755065814 16.512210751469947 334.1505630623425 0.9218108057365582
