M[M_sun], R[km], Lambda[1], P_c[MeV/fm^3], rho_c[fm^-3]
0.24162668629717493 15.618656898711224 2160425.4255784233 3.5677272577965504 0.1711233750220791
0.25364376210783773 15.277295313099442 1723265.626133113 3.7848152300006053 0.17388811850836614
0.2660394115512404 14.981283868917478 1382955.3541287119 4.011392287052897 0.176666549976612
0.278814109767196 14.723539514556595 1116507.9255426137 4.247714657182646 0.17945735697284862
0.291967555372476 14.498462840306159 905906.9178656602 4.494407425620212 0.18226710393637355
0.30550468172326894 14.301186298205392 738619.9984940034 4.751625366265266 0.18509148085749724
0.31941901039788273 14.128165769596576 605118.436004586 5.0200521462608965 0.18793713688593738
0.3337177715789532 13.975939638226082 497687.8266853207 5.299909889293878 0.1908006572836417
0.34839755823478047 13.842055716323362 411023.08664847864 5.591929463227426 0.19368838429393034
0.3634594096453841 13.72402632519767 340669.9995686125 5.896275305418196 0.1965953284449259
0.3789128355701425 13.620027305218416 283315.58213774336 6.213812665816785 0.19952919510868877
0.39474483560203005 13.528474443036435 236411.03017018555 6.544800700496449 0.2024861936442391
0.41096861608447494 13.447918784048353 197882.58541613648 6.889938336045389 0.20546997663804084
0.4275756747080104 13.37708524173205 166086.49348850772 7.249932188700772 0.20848364571502012
0.44457130237206177 13.314961634710004 139814.65801524784 7.625043801771666 0.21152278877642247
0.461951571584165 13.26060362146871 117990.97028416682 8.016217030907823 0.2145934883438117
0.479714288721547 13.213184713553701 99819.12632293429 8.424159189935125 0.2176974297886226
0.49787150904181104 13.172010408853115 84648.25303387383 8.849314718712776 0.22083213294649298
0.5164108133223889 13.136407209249077 71944.76850278073 9.292549754950368 0.22400090470986003
0.5353270070749719 13.105866647024643 61279.51969758958 9.754752387947143 0.22720671315177307
0.5546325629829688 13.079843775940763 52302.37236888362 10.236732109194541 0.23045090905339904
0.5743145868660203 13.05786623949697 44734.78900325339 10.738964885053408 0.23373025055052815
0.5943697057186109 13.039539529663598 38332.86523689873 11.262685804257607 0.23705080549646398
0.6148068287947239 13.024510474968114 32904.997567321145 11.808836896023797 0.240414247300967
0.6356104274913362 13.01243950578654 28294.934709344903 12.378397045509823 0.24382220869884996
0.6567783012611971 13.003028082735913 24179.382737710086 12.972061937238006 0.24727271622998634
0.6783104489842616 12.995980532769892 21030.191801624936 13.591144948127464 0.25077040598376243
0.7001973662213566 12.991071566996679 18174.809887243508 14.236849978102729 0.25431798742917083
0.7224310085766832 12.987995473417282 15731.678919170317 14.910366558245574 0.257917444887234
0.7450177496871272 12.986648164680224 13635.742701556028 15.6127321135941 0.2615687535361159
0.7679365431949459 12.986749458206777 11837.646462711291 16.34519721898131 0.2652736535119048
0.7911805533268556 12.988141165820892 10290.20380907238 17.109385134948823 0.2690369106841116
0.8147530538322206 12.990669269950763 8957.4997056888 17.90675070009056 0.2728609572232149
0.8386362131849886 12.994130991820738 7808.550189417354 18.73866637409933 0.27674693927862903
0.8628169946295564 12.998397690604238 6815.528470087532 19.606462115568515 0.2806952093559632
0.8872899177925341 13.003351458030632 5956.297058450294 20.512230352541533 0.28471218988983915
0.9120493396809356 13.008844717667415 5211.986680095558 21.457764929759673 0.28880089366589157
0.937068250973153 13.014739658620666 4565.874561581302 22.444558928705412 0.2929613155625367
0.9623457432878386 13.020933292218611 4004.9212881428566 23.47461947584577 0.2971971099961416
0.987869954348003 13.02733029130352 3517.024401530135 24.550377213957447 0.3015144472395769
1.0136109237492061 13.033786555469277 3092.281061579885 25.673784747047772 0.30591503679358667
1.0395738519388067 13.040239563052985 2721.7944959606116 26.84678218004154 0.31039998364771076
1.0657240047170835 13.046566745272871 2398.710764522787 28.072475854145697 0.3149780975077149
1.0920551526748439 13.052695286941569 2116.1283199204668 29.35293187913789 0.31964990203641697
1.1185520334803865 13.058532295547275 1868.9001190515912 30.690882956017468 0.3244199263248805
1.1451818455958724 13.063983106852575 1652.3903440164977 32.08975246648036 0.32929638847574094
1.1719444367753507 13.069002196086176 1462.3284409324058 33.55145420624818 0.3342768103634939
1.198799356481396 13.07345688288691 1295.6257141071799 35.080542753521755 0.33937484300346876
1.225743668845333 13.077326614257746 1149.2685706612701 36.6790565756327 0.3445873424433428
1.2527377595212223 13.080494163188753 1020.3135663794623 38.35202548981629 0.3499286104243994
1.2797791966788425 13.08293649741183 906.8525965321187 40.10169382725523 0.3553952599802856
1.3068220230124483 13.084521745342139 806.8998956892774 41.93354530703202 0.361001924871767
1.3338579886434558 13.085235228764732 718.7413197703918 43.85102796594075 0.3667503388797705
1.3608660261440448 13.08503366434591 640.7411219779187 45.85887715444542 0.37264851967063123
1.3877955776584416 13.08378044895962 571.900813159 47.962401266307545 0.37870629056528915
1.4146527315810056 13.081489344960511 510.9261041295826 50.16632640592375 0.38492915152792023
1.44137475262555 13.078038697690069 456.9693627059348 52.475928079243474 0.39132436709789303
1.4679690317160665 13.07344231394937 409.0935210281241 54.897592590503436 0.39790347845368745
1.4943776939929045 13.06758048662148 366.6067173563307 57.43750778040136 0.4046755432188466
1.5205883892897503 13.06043971294479 328.89713623365566 60.102299417238015 0.41165032882511454
1.5465715380704559 13.051955143623944 295.34302126110595 62.89907061803562 0.418838370951525
1.5722875059921788 13.042078589041669 265.5151188035364 65.83544504369885 0.4262510367339451
1.5977114409779274 13.030753845563625 238.96744961317307 68.91961425131305 0.4339005933034547
1.6227986172487827 13.01793862733072 215.2801598540187 72.16038963429082 0.44180028228030843
1.6475506797693498 13.003601532760925 194.1379887936347 75.56725943508128 0.4499644009259932
1.671899665402364 12.987672703572493 175.2719501099498 79.15019048887281 0.4584073012640428
1.6958367673406503 12.970130565024112 158.39664206041098 82.91930718064644 0.4671419805988176
1.7193173845980572 12.950923315789325 143.3111205552545 86.88737386964823 0.4761901146875261
1.7423039083452678 12.929987526014463 129.8040862704453 91.06600798441744 0.4855662131087634
1.7647835367906992 12.907344446135323 117.69942464041276 95.46920808163586 0.4952918445989007
1.7867117705351954 12.882914363908327 106.85114870695982 100.11072812559979 0.5053848807432634
1.8080499813639925 12.856665980722882 97.10379268598325 105.00704344935197 0.5158708377461398
1.8287625477092375 12.828536837105007 88.3472678737925 110.17468912471706 0.5267722443161114
1.8488437631768324 12.798577134367045 80.48264713338776 115.6312425662585 0.5381122921644431
1.8682288660837185 12.766676968895855 73.39342812584971 121.39699950591626 0.549920651090947
1.8869006734475489 12.732832950066243 67.022614949323 127.49332829553697 0.562226935434584
1.9048239188666398 12.697026355654716 61.26790691576295 133.94271127266114 0.5750606083666976
1.9219684992621457 12.659217606146697 56.08626272332628 140.7707138911906 0.5884575700595885
1.9382844465993618 12.61933623247579 51.401476789339966 148.00506185904962 0.6024562819559566
1.953783312764938 12.577501491269926 47.172045930696434 155.67431561624278 0.6170927428205881
1.9684019325494573 12.533582562602797 43.347847887542876 163.81203835975015 0.632414289201877
1.9821193090412585 12.487591030719589 39.887299492293714 172.45192064556755 0.6484622338667512
1.9949118262424113 12.439524420978591 36.752530360713045 181.63337425115446 0.6652901886545394
2.0067504069444633 12.389373051683222 33.90876692216594 191.3983166273544 0.6829523192901852
2.017601526815255 12.337109563757611 31.335123399073435 201.79276185569282 0.7015078329571482
2.027440574183065 12.282733266292688 28.99711506278429 212.86671204666857 0.7210196218350463
2.03625173373172 12.226279746798202 26.873942677792652 224.67547955396503 0.7415574935979122
2.044003019822779 12.167694289001828 24.94697185723922 237.2803527832973 0.7631990448940777
2.050665965432426 12.107000094664256 23.192507506956616 250.74809151802015 0.7860265855496285
2.056242654273758 12.04426454081374 21.5976139508443 265.1517013934552 0.8101280372790212
2.0606930026536645 11.979425980234787 20.144666617637764 280.57308396817854 0.8356036948863587
2.0640044097531027 11.912540153638151 18.825033837802856 297.10171880867097 0.8625597984469087
2.066169589707029 11.84365127301091 17.621872103886986 314.838020957595 0.8911170544574268
2.06716773976458 11.772770919089456 16.52659974594123 333.8914174828578 0.9214015059941649
