M[M_sun], R[km], Lambda[1], P_c[MeV/fm^3], rho_c[fm^-3]
0.24162668629717493 15.618656898711224 2160425.4255784233 3.5677272577965504 0.1711233750220791
0.2536438380523845 15.277281308917559 1723235.0474567343 3.784817276385298 0.17388814401556413
0.2660396466741652 14.981276919274134 1383107.515985013 4.011396588961305 0.1766666019626363
0.27881442382745586 14.723525977093088 1116439.4665404016 4.247721360154368 0.17945743471721942
0.29196827910505513 14.498470064481387 905954.6393075899 4.494416705545645 0.182267207270497
0.3055047767581534 14.301217240581437 738664.5520494878 4.751637538239856 0.18509161233805338
0.3194202791773544 14.128148371860341 605110.4671078805 5.02006729994548 0.18793729411126373
0.33371834256764366 13.97593641972141 497682.15885091806 5.299928423641687 0.19080084389377008
0.3483986586802982 13.842046425487483 411017.402887405 5.591951424513041 0.19368859677541
0.3634598426144163 13.724029416466676 340656.64637931576 5.896301187029702 0.1965955715304983
0.3789142542929304 13.620013232085373 283313.0513625993 6.213842780955452 0.19952946972249244
0.39474635604822206 13.528467542225593 236404.35691315765 6.544835017893944 0.2024864945614546
0.41097074121512106 13.447882492772871 197876.58377374808 6.88997751819218 0.20547031032964508
0.4275779146584042 13.377074021880114 166088.20224995993 7.2499766032727875 0.20848401314539192
0.444572869831195 13.314943311548975 139809.2180987459 7.625093326010637 0.21152318302120865
0.46195365729515364 13.260583146781501 117986.01498271138 8.016272528627393 0.21459391766354055
0.47971821174173296 13.213176578892236 99812.56914151435 8.424221093891994 0.21769789521983812
0.49787534962859953 13.171990707625595 83772.0255427332 8.849382800656706 0.22083262588885622
0.5164133704709495 13.136405821645058 71944.22198525527 9.292625116648905 0.224001435260916
0.5353302884675689 13.105857185557824 61279.76188449396 9.754835540364416 0.22720728245723687
0.5546368539236258 13.079816173277214 52301.55410809039 10.236823594342633 0.23045151830879687
0.5743188645708641 13.057858732068624 44732.59043393176 10.739064305429233 0.23373088886013754
0.5943754158099687 13.03952512894333 38330.734351674015 11.262794654983614 0.23705148559776987
0.6148107760940591 13.02451167461517 32904.811938002924 11.808955820127675 0.24041497055793906
0.6356150294612379 13.012435271985789 28293.91769497742 12.378526726135597 0.24382297654745785
0.6567838225631201 13.00303121310972 24371.70027994032 12.972201778872375 0.24727351550742363
0.6783161804704488 12.995975506235238 21029.50144777747 13.591296936528742 0.2507712522144606
0.7002033146240781 12.991068450570207 18174.252615657122 14.237014928194295 0.25431888229146793
0.7224371965984401 12.987991583735853 15730.93635384852 14.91054533731061 0.25791839015954215
0.7450234327441289 12.986653582179452 13634.912952391935 15.61292390031899 0.2615697338226364
0.7679432219094603 12.986753487948777 11837.352289273023 16.345404610522134 0.2652746873067202
0.791187324740244 12.98813654748629 10289.608927323625 17.1096091721429 0.26903800010112106
0.8147616297397136 12.99066892217047 8957.21082360957 17.906992492780713 0.2728621045122407
0.8386429816084158 12.994118955534567 7808.205781891822 18.738924849847685 0.2767481268409538
0.8628234884479177 12.998391768771873 6815.367910918279 19.6067406351314 0.28069645889758876
0.8872951694775272 13.003352858609341 5955.730833952283 20.51253025640176 0.2847135041150555
0.9120583876344028 13.00884905956227 5211.79747909781 21.458087650192105 0.2888022754613276
0.9370771794893971 13.014740780667273 4565.656098393192 22.44490312139032 0.2929627451429962
0.9623545284121987 13.020926297400669 4005.076840770355 23.474989460070773 0.29719861261201236
0.9878793713862098 13.027327144098754 3516.932543754185 24.550774731166374 0.3015160263867377
1.0136205746160358 13.033790299451804 3092.2148012704233 25.674208258527273 0.30591667120594973
1.0395840692623173 13.040237635174611 2721.7251892056897 26.847236863189227 0.31040170135876816
1.0657343878792311 13.046562872737582 2398.590862330199 28.07296383726588 0.31497990276946775
1.0920666184979424 13.052694124522699 2115.924008519214 29.353451432761712 0.31965177211045515
1.1185625279683824 13.058533852720034 1868.7848965920025 30.691440282930465 0.32442189233168
1.1451939258902555 13.063984278680932 1652.3286523280506 32.09034574771839 0.32929842693163897
1.1719560608564081 13.069000277205113 1462.2638210611526 33.552090400735665 0.33427895440451105
1.1988099353658397 13.07345984564327 1295.572323203678 35.08122486386495 0.3393770985574532
1.2257563924172006 13.077323292303126 1149.213765579328 36.67978262244435 0.34458968455796757
1.2527509938111234 13.08049555799481 1020.2763881405635 38.35280382638801 0.34993107602403023
1.2797918506322348 13.082936230938179 906.8310957133014 40.10252242466668 0.3553978233838601
1.306834902022903 13.084524998437917 806.8246476055555 41.934427590256846 0.361004592147621
1.3338719024788135 13.085234525697379 718.7081489604933 43.8519738265005 0.36675315046651713
1.3608810529480415 13.08503034276163 640.7175879782703 45.859884610502405 0.37265144921599236
1.3878093878293873 13.083777812038521 571.8680959225063 47.96347462085347 0.37870934567881326
1.4146657412840304 13.081489622515127 510.8828901536783 50.16747742820208 0.3849323768191894
1.4413889317008257 13.078037115918017 456.9385695404175 52.47715494209485 0.3913277356036171
1.4679834422931304 13.073440575303154 409.0685463642097 54.89890072614137 0.3979069997195617
1.4943911899586113 13.067578272600205 366.5772145991571 57.438903061045984 0.40467922752848046
1.5206029547530415 13.060435719516974 328.87749303243635 60.10378819451049 0.4116541872606295
1.5465858328850672 13.051949914705693 295.3277660470965 62.90065976628221 0.41884241546015544
1.572301855949162 13.042072279913516 265.50663137811887 65.83714200768453 0.4262552802012913
1.5977261652382735 13.030746707043663 238.94961249411696 68.92142709877402 0.4339050496341046
1.6228134278774504 13.017930390392474 215.27323678076237 72.1623271138976 0.44180496648663486
1.6475649033325184 13.003593498112377 194.12481738439237 75.56933104043274 0.4499693292260308
1.6719141108707176 12.987662651304642 175.25901391826437 79.15239571257085 0.4584124460257009
1.6958519114480868 12.970117995320308 158.3874171076881 82.9216675370983 0.4671474046910695
1.7193318433392446 12.950911104817342 143.3001491344285 86.8899015087577 0.47619583854648695
1.7423178538657318 12.929973796251366 129.79551047729285 91.06870395831712 0.4855722106583379
1.7647977321462847 12.907329823890155 117.69586089676132 95.4720983603071 0.49529818651567326
1.7867241524863822 12.882897047032536 106.83384886526446 100.11381522565024 0.5053915425712422
1.8080643953959772 12.856646429610445 97.09850391427514 105.01034337820242 0.5158778451519707
1.8287747937978234 12.828516800128286 88.34216136919046 110.1782193425475 0.5267796250625294
1.8488557794813092 12.798556474022494 80.47631550894229 115.63503655573743 0.5381201292375014
1.868243007463042 12.76665296544169 73.39204104322856 121.40106416970455 0.549928925256887
1.8869133480403661 12.732808819276164 67.0174414564383 127.49768645305194 0.5622356822219422
1.9048369944700168 12.69700048139279 61.26588384929365 133.9473718746985 0.5750698098422233
1.9219805754396335 12.65918973679385 56.08297250350917 140.7757197172178 0.5884673233123089
1.9382960621719367 12.61930626580976 51.398629593627824 148.01044288462884 0.602466632626381
1.9537937107822256 12.577470467052732 47.168116572578896 155.68008704213534 0.6171036802503824
1.9684120030912158 12.533548490550503 43.34533344021592 163.81823515861495 0.6324258648736555
1.9821291385157696 12.487555415203413 39.88482309581001 172.4585998709406 0.6484745663261111
1.9949200523579118 12.439487684990905 36.74925317974626 181.640560114573 0.6653032778043939
2.006759339516197 12.389334051214748 33.90598999004992 191.4060557899665 0.6829662320756302
2.017608686133781 12.337068715555308 31.33134069496381 201.80110579000373 0.7015226426174889
2.0274475712575426 12.282690389848291 28.995330207668385 212.87569655485575 0.7210353396945938
2.036260424995316 12.22623278418202 26.873575974919284 224.68518778981993 0.7415742745147077
2.0440088914679286 12.16764682898322 24.946082274836446 237.29083204029266 0.7632169129898957
2.050671533764648 12.10694901446371 23.191120519237778 250.75941750108487 0.7860456428651671
2.0562482887556937 12.044211797432922 21.597232450392053 265.163981403822 0.8101484719297251
2.0606977134956934 11.979370507471211 20.144717945270852 280.58636468025776 0.8356254783452273
2.064005783688054 11.912482122103375 18.823687988559733 297.1161273599664 0.8625831428817475
2.0661704287842118 11.84359249581456 17.620977425939504 314.85367304072105 0.8911421103639837
2.0671668223782897 11.772710793740124 16.52544773400209 333.9084163244601 0.921428354306618
