M[M_sun], R[km], Lambda[1], P_c[MeV/fm^3], rho_c[fm^-3]
0.24162668629717493 15.618656898711224 2160425.4255784233 3.5677272577965504 0.1711233750220791
0.2536402429557499 15.277393328930648 1723257.9712693964 3.7847680118101894 0.17388752995640142
0.266033690394614 14.981419113758635 1383109.3688306937 4.0112930259242505 0.17666535046445223
0.2788063222932931 14.723671556189672 1116589.940240002 4.247559995916025 0.17945556313522537
0.2919572166457759 14.498629548143736 906087.21579494 4.494193306778325 0.18226471967337474
0.3054885589478002 14.301463602224063 738839.4145086657 4.751344520675385 0.18508844718912465
0.3194016664308781 14.128358211995588 605219.708272653 5.019702506193523 0.18793350923528973
0.33369602794163833 13.976213418906687 497827.9300156797 5.299482251058305 0.19079635167618963
0.34837194484787126 13.842220178480655 411149.4852065627 5.5914227601976805 0.19368348180272835
0.3634295013882009 13.724247960620586 340780.14658177324 5.8956781554566575 0.19658971988611673
0.37887814260253083 13.620270672360173 283421.048100203 6.213117844166891 0.19952285917186147
0.39470679165248396 13.528689691706495 236519.52055915084 6.544008929636345 0.202479250883426
0.4109275827067041 13.448102483296875 197974.187433753 6.8890343330944415 0.20546227776956047
0.4275288994790293 13.377277268351461 166172.16160813408 7.248907472564239 0.20847516850103484
0.44451981964739296 13.315132222054814 139886.32875647894 7.623901205648045 0.21151369297659156
0.46189581569210614 13.260743881848752 118051.8014915434 8.014936628138459 0.21458358339322947
0.4796546406585336 13.213331796543953 99876.66493389127 8.422730998503006 0.21768669178562808
0.4978046879533211 13.17214819556843 84696.97655352521 8.847744005392002 0.22082076031093642
0.5163369300688238 13.136546801496811 71988.11158883593 9.290811104608878 0.22398866450306373
0.5352491035346366 13.105975935527477 61319.51969701993 9.752834014943751 0.22719357895473785
0.5545503927111558 13.079922437866031 52341.03087435352 10.234621511870207 0.23043685329856567
0.5742246462003271 13.057978171842782 44765.118331415506 10.736671234352144 0.23371552460254197
0.5942753532779986 13.039605497381904 38358.527398344755 11.260174612641194 0.23703511552580137
0.6147059967712286 13.02459005599995 32929.37174869115 11.80609333226543 0.24039756185578107
0.6355005910375072 13.012490511716228 28318.816955912847 12.375405353257397 0.2438044946670309
0.6566658180128294 13.003078733197047 24198.84075889813 12.968835854571973 0.24725427726438473
0.6781903181689831 12.996014623921596 21047.58661310201 13.587638672021898 0.2507508839777942
0.7000701028483352 12.991083164592016 18189.70134775101 14.233044713264649 0.2542973436817082
0.7222968359627314 12.988008237412735 15744.494891907649 14.906242301948781 0.2578956383895427
0.7448768998570738 12.986653271264776 13648.018543946835 15.608307811619799 0.26154613943917876
0.7677888426206687 12.986759772181312 11847.587761191307 16.340412968452444 0.26524980522294983
0.7910255361881974 12.988124784297414 10299.87115782965 17.104216930963155 0.26901177945823
0.8145924614773655 12.990638210025047 8966.632318729775 17.901172946510943 0.2728344911813081
0.8384657616106855 12.994120954026714 7815.710829194328 18.732703807990575 0.27671954437247387
0.8626386790548132 12.998370833379512 6822.125754534121 19.600037225102717 0.28066638492440954
0.8871057815143106 13.003308262157496 5962.325647174845 20.505312223185843 0.2846818735743296
0.911857749272105 13.008799209433079 5186.229556440179 21.450320530377564 0.28876901890353857
0.936869368552651 13.01467936754749 4570.625124645694 22.436619265815438 0.2929283387230503
0.9621399578003391 13.020871021790594 4009.501171443644 23.4660849346572 0.29716244868851555
0.9876565609857092 13.027269213946237 3520.863524112199 24.541207634391675 0.3014780208529659
1.0133960381101665 13.033739998429573 3095.944270215326 25.664015617781175 0.30587733584231874
1.0393458214720162 13.040188871256591 2724.9683504333116 26.83629409993914 0.31036036156966773
1.0654916859709542 13.04652154077805 2401.4531932958976 28.06121974302008 0.31493645625812894
1.0918123653794969 13.052639268032115 2118.601706264406 29.34094762356075 0.31960676607470967
1.1183039892046975 13.058475572999209 1871.0749071023988 30.678027512360956 0.3243745779143702
1.1449269315288457 13.063948238166008 1654.1704174056244 32.07605819003117 0.32924930719344103
1.1716816495837332 13.068951750734987 1464.1516987526793 33.5367798080003 0.3342273561284047
1.198528616393948 13.073415672043712 1297.2295623270852 35.064809400654774 0.33932281707085926
1.225467671260565 13.077291454253878 1150.624385889295 36.662309915417744 0.34453332030981665
1.2524556499336184 13.08045892013426 1021.6139468268965 38.33407289703078 0.3498717405460545
1.2794909891953503 13.0829071851884 904.1327314250492 40.08258209017839 0.35533613465058866
1.3065277478153394 13.084506656209488 807.9839534754094 41.913195447870216 0.36094040416453077
1.3335582476282317 13.085230978930252 719.6209830596207 43.829211896697835 0.3666854902395404
1.3605614106529669 13.085040357684164 641.5801481830238 45.83564057571061 0.37258095085612103
1.3874864435319108 13.083797014283984 572.6649068919021 47.93764495719169 0.378635826118035
1.4143369054579877 13.081523002709714 511.59114581930766 50.13977899066744 0.3848547627447864
1.4410633296189141 13.078105824230521 457.56697373397395 52.44763168979259 0.3912466758142018
1.467645597949722 13.073508191940173 409.64371417263055 54.86742197239809 0.3978222645758152
1.4940512626290334 13.067661202007235 367.11426656398964 57.405327535314676 0.40459056964206164
1.5202601540510612 13.060535819519464 329.34536551237704 60.06796309495846 0.4115613400369407
1.546240662071497 13.05207362428484 295.7580392152098 62.86241971786423 0.418745091496713
1.5719545932399825 13.04221559090262 265.88010561811643 65.79630791517774 0.4261531695262116
1.5973715271258107 13.030905926336304 239.28271976811925 68.87780488297065 0.4337978177673942
1.6224635693720062 13.018116426106866 215.58828784955628 72.11570631770354 0.4416922523049165
1.6472148140654759 13.003809329425088 194.4141023609456 75.51948328997129 0.4498507426089907
1.6715641854268015 12.987908138548589 175.51156290080746 79.09933320471671 0.4582886518019518
1.695502769529835 12.970390811689837 158.62639322415166 82.86487274583132 0.4670168904261513
1.7189765476006538 12.951203168394878 143.5161129243924 86.82908217338768 0.4760581126755562
1.741981522607301 12.930325848006298 129.9940103566864 91.00383475934495 0.48542790056811863
1.7644608851888284 12.907700883098336 117.87490612702844 95.40255462146918 0.49514559202430053
1.7863879914302367 12.883296207526707 106.99579936947116 100.03953640039586 0.5052312520888389
1.8077304614136596 12.857074949672418 97.23891945596174 104.93094442637113 0.5157092413113302
1.8284568577759202 12.829009853848756 88.47626039441512 110.09301463823648 0.5266010512754664
1.84853382048917 12.799057050904505 80.59087912854729 115.54375206045297 0.5379315669701014
1.867928689945377 12.767197180090495 73.50309434993211 121.3032681940643 0.5497298484887103
1.8866076318886262 12.733395134498105 67.11674837006893 127.39283013879634 0.5620252364358944
1.904539795582391 12.697620913088791 61.3591520826746 133.8352399074597 0.5748484265222272
1.921693540884699 12.659857510726631 56.167446107487585 140.65528320664623 0.5882326671900252
1.9380228559574608 12.620046222365854 51.4738158989869 147.88098088865087 0.6022176060359814
1.9535216630181578 12.578199653454982 47.240478344341724 155.54123393671057 0.6168405397162107
1.9681593635093244 12.534348165095466 43.410345091413205 163.66883134594332 0.6321462941296019
1.9818919823727952 12.48840553385756 39.94422791664524 172.29791021765936 0.6481778704507705
1.9946941752835141 12.440383287272473 36.80301677054625 181.46768382578432 0.6649883812472999
2.0065446515605596 12.390267473284135 33.960774055952534 191.2198707010918 0.6826315249084058
2.017416687044773 12.338064412256031 31.37984728541172 201.60037405261122 0.7011663635841703
2.0272711304931588 12.283740052404008 29.039112393836472 212.65955712614627 0.7206572166952777
2.036101623362887 12.22733689896502 26.912578280615303 224.45164105065948 0.7411705834161095
2.0438684283305397 12.168804545739299 24.980795901796423 237.0387406438812 0.762787074001504
2.0505509658809102 12.10816494666619 23.223191078479932 250.48644420707797 0.7855855191054936
2.056141925773125 12.045452133322723 21.62659324351993 264.8685795981124 0.8096569061625412
2.0606190932775656 11.980692771935134 20.17247977130559 280.2665829752966 0.8351004546235261
2.0639563576449556 11.913872438144269 18.849669322431712 296.7695330449826 0.862021597988318
2.0661386760570046 11.845023640779067 17.644831617339673 314.477172168292 0.8905394065192471
2.067158475255594 11.774200231099679 16.547804300806142 333.4995267877521 0.9207825459452533
