M[M_sun], R[km], Lambda[1], P_c[MeV/fm^3], rho_c[fm^-3]
0.24162668629717493 15.618656898711224 2160425.4255784233 3.5677272577965504 0.1711233750220791
0.25364453319650493 15.27725728045975 1723224.1873603521 3.78483122854615 0.1738883179225184
0.26604042840767295 14.981245549330614 1382922.5706702953 4.011425919271567 0.17666695640212626
0.2788168798569436 14.723474466676308 1116412.2201160768 4.2477670609901175 0.17945796477804443
0.2919717703407102 14.498362863637352 905826.5158823592 4.4944799762204655 0.18226791180414548
0.3055079600720873 14.301191115481387 738614.5360280388 4.75172052718807 0.18509250877708086
0.3194254025705441 14.128088416660617 605062.6245506565 5.020170618576263 0.18793836608193545
0.3337238664172727 13.975942243277292 497652.6378985401 5.3000547921676375 0.19080211621514312
0.348406164380359 13.841984079614264 410979.7988647439 5.592101158538774 0.19369004549329938
0.36346951106983966 13.723945682480169 340633.02627412486 5.896477650672183 0.19659722891437217
0.3789242561616348 13.61995251201712 283286.4955099877 6.2140481098021905 0.19953134207434267
0.3947569856154792 13.528421350559556 236391.12033538276 6.5450689988543 0.2024885462583841
0.41098307912634735 13.44782899400833 197849.6382287361 6.890244668423106 0.2054725854931169
0.4275914934056731 13.377033315818448 166072.62585588757 7.250279429826132 0.20848651835185994
0.44458807537571676 13.314889565398412 139789.5253081064 7.625430991991355 0.2115258710595337
0.46197034813537635 13.260536796272666 117968.69407701702 8.016650923952756 0.2145968448573017
0.47973646398263364 13.213120954332169 99807.64455914275 8.424643169403803 0.21770106863763616
0.49789429551123005 13.17195590333315 84632.73212340748 8.849847000168248 0.22083598689165698
0.5164323777790417 13.136387880120179 71929.68355342562 9.293138952634854 0.22400505269829102
0.5353536352531859 13.105836744184652 61267.341216577486 9.755402496970532 0.22721116414226997
0.554660979125836 13.079807073304659 52297.53596152813 10.23744736743514 0.23045567239425827
0.5743451925701052 13.05782551584915 44321.69185012226 10.739742184751297 0.23373524105536592
0.5944033018681052 13.039503624231601 38322.07683351581 11.263536835255954 0.23705612275354218
0.6148417296508952 13.024496591681576 32896.918884654835 11.809766686056957 0.24041990197568902
0.6356465558924229 13.012420802213825 28287.462372136102 12.379410935990345 0.24382821201961882
0.6568184543081884 13.003006071846709 24366.811913469668 12.973155272203867 0.2472789652843081
0.678351527981715 12.995969473729039 21024.3767602296 13.59233325371138 0.25077702215088754
0.7002405188905444 12.99106635032903 18168.969209544357 14.238139626128387 0.2543249838326513
0.7224764821286057 12.988003551157595 15726.134979232715 14.911764329951861 0.2579248354331392
0.7450653421237072 12.986639243056697 13631.736504588915 15.614231587490616 0.26157641785203456
0.767987155737568 12.986763271747801 11834.030602261604 16.346818701803628 0.2652817361970921
0.7912340709485649 12.988142697260582 10218.423989635858 17.111136765005163 0.2690454282679239
0.8148078092553931 12.99067544251484 8954.425566928447 17.90864115526651 0.27286992729785076
0.8386959179052687 12.994130265306325 7806.328439448518 18.740687269324106 0.2767562242465476
0.8628739683433642 12.998417525607788 6812.798841290985 19.608639728362533 0.2807049789312214
0.8873580621569346 13.003356517924896 5954.278489490642 20.5145751642483 0.284722465218307
0.9121140995008583 13.00885905196963 5210.1887117994265 21.46028813948331 0.28881169731923945
0.9371355791149358 13.01474564512682 4564.197076221816 22.447250025437608 0.2929724928462841
0.9624207039495464 13.020955247625041 4003.7026099466357 23.477512232220207 0.29720885833929983
0.9879419273016006 13.027347624208723 3515.7866710282656 24.553485246609522 0.3015267939778512
1.013685814813886 13.033796692008675 3091.434471677127 25.67709602489344 0.3059278156525092
1.039651608969325 13.040252134069606 2720.8240538906475 26.850337185690876 0.3104134138189057
1.0658034930736788 13.04658729183538 2397.687762134387 28.076291229297233 0.3149922122394527
1.0921370157544303 13.052710839880168 2115.183708978206 29.356994101045196 0.3196645235410663
1.1186362722661838 13.05854792809816 1867.9577861206403 30.695240525385174 0.32443529793318854
1.1452687232897518 13.064000587047186 1651.686988424183 32.0943911606871 0.3293123265721423
1.1720339022413018 13.069012380588463 1461.7623493518872 33.556428438748576 0.334293574039885
1.1988904371442417 13.073474555267136 1295.0827128344522 35.08587600272061 0.33939247861272226
1.2258376597510279 13.077335019434154 1148.7977047099107 36.68473336436543 0.3446056548850466
1.2528333707485992 13.080503649655205 1019.9169096298533 38.35807686042612 0.3499476873587188
1.279877048262384 13.082936857792768 906.4792698517662 40.10817246450056 0.3554153027195498
1.306921854468774 13.084524870374302 806.5030749006808 41.940443717320015 0.3610227798111722
1.3339599049300939 13.085241857062794 718.360643308246 43.85842349501253 0.36677232221685785
1.3609701310817195 13.08503315542465 640.423052543547 45.8667543056697 0.37267142535636133
1.3879013418199442 13.083768864790084 571.6653330110395 47.97079368663671 0.37873017810267817
1.4147515774187058 13.081459385749952 510.71968650369814 50.175326124764275 0.3849543697319009
1.4414828391603718 13.078026100179075 456.76785631615905 52.48552080926867 0.39135070514045683
1.4680774560374856 13.073422299880203 408.90479559286297 54.907820808988994 0.3979310109783456
1.494487916630169 13.06755510758814 366.44547138256434 57.448417405423115 0.40470435063957894
1.520700709509716 13.06040582082927 328.7475356488999 60.11394011574553 0.411680497800267
1.5466840930596284 13.05191544333464 295.2162502624605 62.911496144665506 0.41886999490467125
1.572400448458976 13.042031259421684 265.3874814504501 65.84871361375295 0.42628421642675546
1.5978142619386144 13.030693048289368 238.85345415641387 68.93378895174082 0.43393543746620383
1.6229120122793728 13.017873465280108 215.167118376426 72.17553887698793 0.4418369083063238
1.6476645291659908 13.003531899600322 194.04643191564557 75.58345745735085 0.4500029356371067
1.672012005196879 12.987596161530618 175.17985429060474 79.16743332215441 0.4584475285968179
1.6959502682504486 12.97003872350772 158.3252019471799 82.93776306308443 0.46718439216290786
1.7194303466392902 12.950824124006264 143.24012176753732 86.90713781127543 0.47623487029126743
1.7424086255331652 12.929868643700777 129.7490263617965 91.0870882116744 0.48561310885505743
1.7648936134000621 12.907227930536804 117.64633694543257 95.4918076770073 0.49534143315739004
1.7868204227236035 12.882787576347319 106.79420379064857 100.13486676747766 0.5054369708852106
1.8081587076848342 12.856524863275286 97.0618627479112 105.03284631395441 0.515925630183208
1.8288674858320064 12.828385858031936 88.30342935478686 110.20229274930773 0.526829956152352
1.8489471557426875 12.798411694984463 80.44106010968281 115.66090878657944 0.5381735723386005
1.8683220906344542 12.766469383583594 73.36772438599849 121.42878229943791 0.5499853492114627
1.886999587302982 12.73264535906436 66.98916476024866 127.52735266269462 0.5622951383974177
1.9049217084061312 12.696823699422985 61.23965062064619 133.97915410307823 0.5751325578293393
1.9220617622798635 12.659001337549746 56.05865634379416 140.80985627870362 0.5885338343155615
1.9383740604810846 12.61910748609158 51.3776597077308 148.04713821739523 0.6025372179246637
1.9538694422687453 12.57725838141531 47.152141065835444 155.71944481488848 0.6171782671695183
1.9684842034596721 12.533320902996307 43.32879689485034 163.860493891614 0.6325048045380922
1.9821970783094702 12.487314491559927 39.86788130766275 172.50414868785697 0.6485586672363426
1.9949835355675962 12.439231381256429 36.73380062122318 181.68956414185794 0.6653925393195728
2.0068185337843722 12.38906634526137 33.89271607284319 191.45883327210845 0.6830611107882475
2.0176641666219712 12.336785070059301 31.319887081185534 201.858007788995 0.701623638052779
2.0274991476961763 12.282395283636596 28.983058886215392 212.93696725071365 0.7211425291112878
2.0363059392799903 12.225920152346893 26.861651968507925 224.75139433483795 0.7416887141039257
2.0440483330726353 12.167319896121148 24.93488363537038 237.36229699400675 0.7633387673008608
2.0507053165720537 12.106606463290769 23.18151097257792 250.83665721187378 0.7861756078785539
2.056275814012943 12.04385224852744 21.588704437238786 265.2477277382512 0.8102878306957748
2.060719086939408 11.978996794948344 20.136742336249522 280.67693597338354 0.8357740363462374
2.0640227174661816 11.912095738198218 18.816944155918375 297.21439078501953 0.8627423472372836
2.066180066163613 11.843186523496156 17.614080724471826 314.96041770940053 0.8913129875834791
2.0671697186231133 11.772286737241014 16.52021835141448 334.0243463165311 0.9216114564686716
