M[M_sun], R[km], Lambda[1], P_c[MeV/fm^3], rho_c[fm^-3]
0.24162668629717493 15.618656898711224 2160425.4255784233 3.5677272577965504 0.1711233750220791
0.25364400971303924 15.277275276294596 1723236.2428490168 3.7848192483611935 0.17388816859529235
0.2660399259676255 14.981256643515469 1382955.234865136 4.011400734450725 0.17666665205842944
0.2788148274687719 14.723531428106025 1116473.3006547012 4.247727819408229 0.17945750963483031
0.29196899467354437 14.498412269641253 888684.319155664 4.494425648062334 0.18226730684749579
0.3055042086453814 14.3012405752702 738657.4021089419 4.751649267662151 0.1850917390382001
0.31942071227186725 14.128153052186544 605110.3396955557 5.020081902677785 0.18793744562024753
0.3337186495157435 13.975934614642343 489726.7780330021 5.299946284136805 0.19080102371932
0.34839971942825787 13.842037434024274 411011.9938855425 5.591972587366722 0.19368880153184106
0.3634636662634474 13.723964208379853 340663.16660664283 5.896326127697682 0.19659580577852998
0.3789155775470904 13.620036488908303 283314.03874408035 6.213871801257545 0.1995297343527048
0.39474804658204077 13.52845773265569 236411.94409208707 6.544868087702157 0.2024867845389975
0.410972116453912 13.447905973905337 197872.12479518252 6.890015275919709 0.20547063189029713
0.42758055751767615 13.377073832613158 166087.38398371066 7.250019403235423 0.20848436721851413
0.44457511858034515 13.314932103125221 139806.1978373941 7.625141049916105 0.21152356293418256
0.46195621034801027 13.260586426581114 117982.9056143626 8.016326008896922 0.21459433137666228
0.4797204599622966 13.213159509169724 99815.08665110849 8.424280747558338 0.21769834373201472
0.4978769989532963 13.171993811917302 84642.82639485058 8.849448407769522 0.22083310091238478
0.5164162718098326 13.136400773329475 71938.4506536067 9.292697738938108 0.22400194652635946
0.5353339109401877 13.105847844966956 61278.51476109176 9.754915670229618 0.22720783106870926
0.5546399468447274 13.07982581144526 52301.165056092555 10.236911754103843 0.2304521054184153
0.5743226077230708 13.057842736230173 44730.68102694332 10.739160112033488 0.23373150396821402
0.5943784834988057 13.039538608572471 38329.35674271021 11.262899549226095 0.2370521409788951
0.6148148709620381 13.024508624916658 32903.08106567507 11.809070421675091 0.2404156675265558
0.6356217124582579 13.012436846370962 28294.362149705674 12.37865169331428 0.2438237164873958
0.6567894257188193 13.00301611109813 24371.937152561244 12.972336537813138 0.24727428573426852
0.6783211807870795 12.995974614681232 21028.834150616207 13.59144340084095 0.25077206768851085
0.7002082491067811 12.99106662363516 18173.65786706615 14.237173883197777 0.25431974463011964
0.7224414991997181 12.987994823867878 15730.22239007908 14.910717618783664 0.2579193010766322
0.7450290084493094 12.986655324419484 13634.308397430188 15.613108716794162 0.2615706784818639
0.7679500745121899 12.986759129862897 11836.89192457782 16.345604464801145 0.2652756835301759
0.7911937611018639 12.988138772697692 10289.355541168134 17.109825067255723 0.26903904992594646
0.8147671939436749 12.990667480788737 8956.82416478296 17.907225498257038 0.2728632101065651
0.8386497905229621 12.994135981586863 7807.68857278956 18.739173932216275 0.2767492712455588
0.8628307661822637 12.998393163217859 6815.246101002282 19.60700903306408 0.280697663029843
0.8873098308514307 13.00335844873752 5955.713584818764 20.51281926169343 0.2847147705810546
0.9120655249564459 13.008846879745006 5211.352676941163 21.45839864309686 0.28880360704288627
0.9370853573218331 13.014732145755207 4565.4105444807965 22.445234806427575 0.2929641227738082
0.9623635576878804 13.02093695371054 4004.4685968365693 23.47534599963865 0.2972000606251357
0.9878879651211498 13.027327343520872 3516.755582028438 24.551157803462523 0.3015175481511173
1.0136299856181374 13.033785255181256 3091.9705647439555 25.674616380734722 0.30591824622814817
1.0395942421024977 13.040239685805028 2721.5617304318594 26.847675024660592 0.31040335665390745
1.06574423537142 13.04656873969636 2398.511439758305 28.073434089014285 0.31498164243516624
1.0920747484693547 13.052702002515382 2115.8653975555267 29.353952108138607 0.3196535742343957
1.1185730894138666 13.058532358417162 1868.6796430910867 30.69197735945087 0.3244237869039074
1.1452033540387765 13.063997307344957 1652.1514274523026 32.09091747248552 0.3293003913216262
1.171966910251932 13.069005304443674 1462.1455466650123 33.55270347995509 0.33428102054469166
1.1988227341612763 13.073462370387809 1295.5179621660704 35.08188219111261 0.3393792721604594
1.2257679494415097 13.077331589220666 1149.1516092719883 36.68048229022047 0.34459194157790707
1.252762091112768 13.080496822145522 1020.2480540561838 38.353551270791975 0.3499334367108135
1.2798032741786056 13.082931968533615 906.7537547589274 40.1033209181809 0.35540029365603365
1.3068470055664647 13.084517887581825 806.7976462681928 41.93527781962889 0.36100716251982184
1.333884090020518 13.085237273902273 718.6159406975532 43.85288532409144 0.36675585990874926
1.3608911108974278 13.08503503968047 640.672598043168 45.86085546644 0.37265427233317805
1.3878224950875564 13.083774067656483 571.848701508768 47.964508981893644 0.3787122898042326
1.4146796020344583 13.08148462081519 510.86086707972385 50.16858663628377 0.38493548494247154
1.4414016512351788 13.078034015637085 456.90051807572394 52.47833723640108 0.3913309817408146
1.4679968631889329 13.07343825687731 409.0457407145653 54.90016134166504 0.39791039306983467
1.4944050135817009 13.067573628480583 366.55314490402935 57.44024765681761 0.40468277800212465
1.5206161625368937 13.060431962790688 328.8532387293291 60.105222891563216 0.41165790553747583
1.5466001489491203 13.0519446163299 295.31181102497396 62.902191189404704 0.41884631305375575
1.5723160374005294 13.042066041982487 265.4867527792325 65.83877733138416 0.42625936952951415
1.5977400717737749 13.030740934233862 238.94135314318348 68.92317409792285 0.4339093440968324
1.6228280623301135 13.017922380104578 215.25578682221968 72.16419421959354 0.4418094805513416
1.6475785678408388 13.003587515530045 194.1064818222115 75.57132740167178 0.4499740785221081
1.6719280997732306 12.987651217742624 175.24421289073697 79.15452084034273 0.45841740392447966
1.6958650693369943 12.970108744053492 158.3731675203289 82.92394216492339 0.4671526317791868
1.7193455899868872 12.950897447067048 143.28902235343244 86.89233734555835 0.4762013545183859
1.7423316131179716 12.929958544612141 129.78930678476416 91.07130201800179 0.48557799038482485
1.764811393604973 12.90731462339046 117.68797995953398 95.47488367034599 0.49530429810782806
1.786738748770558 12.882880961538275 106.82916574771211 100.11679021127419 0.5053979624611526
1.8080773101764949 12.856630887218769 97.09264749420328 105.01352346588223 0.5158845980748246
1.828787975880385 12.828499599903136 88.33580113722381 110.1816213588102 0.526786737773572
1.848867829132252 12.798536917639353 80.46934507191222 115.63869276825942 0.53812768171091
1.8682554121937154 12.766632450872267 73.38629574473696 121.4049812306122 0.5499368989574522
1.8869254051073185 12.732786317951135 67.01443735347087 127.50188635371192 0.5622441113890552
1.9048494435828787 12.696975356684572 61.26189212474268 133.95186324101363 0.5750786771938863
1.9219921911073887 12.659161808790136 56.07952107097547 140.78054377649005 0.5884767224142683
1.9383079801606662 12.619290624134958 51.397848296257834 148.01562852482252 0.6024766074632952
1.9538055699811427 12.577439025432964 47.16514136979385 155.68564891238074 0.6171142205512485
1.9684223990466598 12.533516912483408 43.342300139323996 163.82420696270268 0.6324370202533205
1.982139176626013 12.487521615965793 39.88324956678738 172.46503659267478 0.6484864510290167
1.9949297845806038 12.439451175082253 36.7477770790735 181.64748508702309 0.6653158917377319
2.006767825805779 12.389295701456357 33.90530080690014 191.41351398156394 0.6829796397561125
2.0176168325979824 12.33702813643308 31.331165069336265 201.80914680608288 0.7015369146278485
2.027454930398659 12.282647559045257 28.993940498972087 212.88435489871057 0.7210504869491555
2.0362671846524676 12.226188748775137 26.871078397178145 224.694543599252 0.7415904462540412
2.044015333151847 12.167600067070609 24.944602905158977 237.30093089320448 0.7632341324618068
2.0506755263071663 12.106901332468523 23.189313063619565 250.7703323566292 0.7860640084096836
2.0562519634190037 12.044160560163446 21.59573907385117 265.17581567198573 0.810168164839506
2.0607001513854106 11.979318240409022 20.14343090269053 280.5991633422577 0.8356464711297698
2.0640088857144105 11.912429982303754 18.82307185407 297.1300129430567 0.8626056400143881
2.0661720205804475 11.843534587660564 17.62030176720002 314.8687570423256 0.891166256883758
2.067167885604656 11.772651067948466 16.524980611149584 333.9247982279059 0.9214542282145334
