M[M_sun], R[km], Lambda[1], P_c[MeV/fm^3], rho_c[fm^-3]
0.24162668629717493 15.618656898711224 2160425.4255784233 3.5677272577965504 0.1711233750220791
0.2536421821725723 15.277373264398566 1723102.0607747152 3.7848051935339044 0.17388799340865047
0.2660382050716657 14.981280449457163 1383094.849136806 4.011371188447763 0.1766662950124205
0.27881193078427796 14.723625596675967 1116469.1650882675 4.247681782692855 0.17945697567830782
0.2919651282323451 14.498505013171286 905951.2778653291 4.494361912648455 0.18226659713887003
0.30549978334569017 14.301298282672947 738687.6588543226 4.751565669499109 0.18509083601848975
0.3194152212445707 14.128218575493264 605138.9138942607 5.019977826017379 0.18793636578472592
0.3337119847208585 13.976016072197462 497730.8620326299 5.299818989002733 0.19079974206854072
0.3483924975057587 13.8420940367339 411048.86762987013 5.591821755993578 0.19368734219681363
0.3634536301082302 13.724060204855654 340689.8359681283 5.896148371544988 0.19659413625512664
0.3789055959449019 13.620070171784027 283331.14574847114 6.213664969319011 0.19952784829446724
0.3947363067679357 13.528532391999242 236446.33442802762 6.54463239478104 0.20248471783048483
0.41096025618255183 13.44793598534688 197894.0000479958 6.889746172113528 0.20546834008935866
0.42756384279732434 13.37718370872699 166110.18658938038 7.249714363428614 0.2084818437023674
0.4445603127283676 13.314973562659885 139827.79115677826 7.62480091726088 0.2115208552595424
0.46193960010765234 13.260623224188246 118005.74536241037 8.015944850853456 0.21459138281104304
0.4797015085831785 13.213229588384415 99832.33719917657 8.423855592064463 0.21769514715705726
0.4978577634498555 13.17203159520301 84660.69426708779 8.848980822483279 0.22082971539512855
0.516394788182868 13.136438928061953 71955.97050985596 9.292180157122957 0.22399830271811333
0.5353111988347874 13.105876113136706 61290.9949149814 9.754344582730372 0.2272039211013952
0.5546156564199736 13.079853660323932 52311.56969383655 10.236283438542555 0.2304479210818838
0.574295562661164 13.057870595074087 44740.23507582081 10.738477298461405 0.23372712009357208
0.5943508466402235 13.039560009108186 38336.25341790249 11.262151969483073 0.23704747008713226
0.6147848139550564 13.024526238374587 32910.24275247545 11.808253659657174 0.24041070025074954
0.6355840094583614 13.012468415636162 28301.63223871378 12.377761057418233 0.24381844296616748
0.6567553508883099 13.00303031569934 24377.37561268382 12.971376117964112 0.2472687963682502
0.6782848741319905 12.995994624969622 21033.90267773277 13.590399559394703 0.25076625585900003
0.7001710413049419 12.991075749027575 18041.498831130284 14.236041023558297 0.25431359881128623
0.7224028486212719 12.988007391030918 15734.443248688576 14.909489784776106 0.2579128090553987
0.7449875730257594 12.98664225604785 13638.125246067495 15.611791549051736 0.26156394599407645
0.7679043135192863 12.986757799567282 11839.450884249643 16.344180126888663 0.26526858356291844
0.7911483056485108 12.988132700211446 10293.096406808225 17.108286411124006 0.2690315679622106
0.814720165511153 12.990659177056354 8959.328495308637 17.90556490196699 0.2728553306959072
0.838599723146286 12.994125506149937 7809.775013079766 18.737398761000616 0.2767411152523211
0.862779262350904 12.998391584030351 6816.998240071959 19.605096206488565 0.28068908138335524
0.8872515515884776 13.003334213667356 5957.813917860963 20.510759573919238 0.2847057447098684
0.9120099797641981 13.008822826843097 5213.039297206289 21.456182257914428 0.2887941171233714
0.9370262017212962 13.01472121771148 4567.032482875318 22.442870956196252 0.2929543046857195
0.9623020948006425 13.020916670136915 4006.0757413131096 23.47280502130022 0.2971897409571051
0.987825333032092 13.027313643808952 3517.816813607992 24.548427737630504 0.3015067028955898
1.0135650434053411 13.033775620807914 3093.410199155317 25.671707794729187 0.3059070214345908
1.0395252648639854 13.04023070987261 2722.5405401207336 26.84455236248159 0.31039155979849153
1.065674108973639 13.046554412588957 2399.1912657721973 28.07008273457509 0.31496924431781503
1.0920026871084716 13.052679235721866 2116.5976825566877 29.35038393871691 0.3196407310153448
1.118499452855453 13.058517986192172 1869.3418411610633 30.688149777395463 0.3244102848601858
1.145128055113294 13.06397700746843 1652.8090963114369 32.08684296963367 0.32928639173114965
1.1718889050244352 13.068986569188354 1462.7870288382674 33.548334266054056 0.3342662958433604
1.198741704989676 13.07344458990922 1295.9926020569746 35.07719764599729 0.33936378163974606
1.2256848158446827 13.077323176817357 1149.540810134069 36.675496007351484 0.34457585660123174
1.252679092018837 13.080486439747569 1020.6317424141263 38.348208498337186 0.3499165190321613
1.2797164138455532 13.082930573754993 907.0993301687456 40.09763036198687 0.35538268897626135
1.3067593229687597 13.084523184069004 807.1079564481705 41.92921857283837 0.36098884449880225
1.333794898111428 13.085226595782206 718.8650821941117 43.8463894577316 0.3667365508345131
1.360802236121611 13.085035233606192 638.3515215352929 45.8539365906444 0.3726341531822227
1.3877311981952136 13.083784501900569 572.0719689727387 47.95713754639862 0.3786913083192626
1.4145847719013882 13.081496518149212 511.04954521954573 50.160681817573 0.38491333476931494
1.441308247805399 13.078047852720424 457.0712117597813 52.46991158227835 0.3913078480514134
1.467899685395565 13.07345848949702 409.20714565646796 54.89117754730389 0.39788621031111465
1.4943082325473238 13.067598488602478 366.70494058036206 57.430665395801086 0.4046574755536794
1.5205187274422263 13.060460292071463 328.98912937731103 60.094998545366636 0.411631407295454
1.5465011384799408 13.051980564889146 295.43039257041454 62.891277549888976 0.4188185369735154
1.5722165594182436 13.042109257481114 265.58656761132914 65.82712327329105 0.42623022712261216
1.5976401656781152 13.03078947354789 239.03522877971784 68.91072421800291 0.43387873987741005
1.6227205478623883 13.017951001849186 215.33999423675283 72.1508884385807 0.44177731142637117
1.6474791073362245 13.00364812454753 194.19682804892406 75.55710052484856 0.44994023311929865
1.6718275678919128 12.98772395956133 175.31929721823388 79.13937635169425 0.458382072005727
1.6957660119595726 12.970184199470898 158.4433021298461 82.90773232082572 0.46711538160466104
1.7192305776349768 12.9509507191277 143.35675319222327 86.87497871042972 0.47616204575043053
1.742234105376893 12.930057970079108 129.84237129499095 91.05278736612544 0.48553680209939837
1.7647146390958155 12.90741921163124 117.73947282901854 95.45503466216718 0.4952607449518156
1.7866424603658546 12.88299541979907 106.87325133780863 100.09558956427601 0.5053522123846945
1.8079826822454503 12.85675248942475 97.13557116703771 104.99086125477137 0.5158364748220288
1.828694801458888 12.828632847977268 88.37449128633982 110.1573654217697 0.52673600506373
1.8487762304101776 12.79867906165121 80.50385107731864 115.61263769858985 0.5380738609278859
1.8681649768954547 12.76678834886748 73.4192697291475 121.37706736590509 0.5498800765581988
1.8868387736430738 12.732951887514163 67.04212877143901 127.47195699149225 0.5621840433978909
1.9047644227665248 12.697151563019064 61.28738677913984 133.9198569142197 0.5750154867669188
1.9219102989102361 12.659354339199464 56.10363799284411 140.74616671817256 0.5884097428317312
1.938227704795391 12.619482211191754 51.418029216944646 147.97867489260793 0.6024055253131726
1.953739508725271 12.577691477437996 47.186019776478595 155.64601432105408 0.617039109033206
1.9683501059462551 12.533745175890097 43.36012074013102 163.78165125534468 0.6323575258383132
1.9820731977723183 12.487766926445087 39.89795478650342 172.41916798704392 0.6484017596638889
1.994867412950844 12.439707891521364 36.76428739233447 181.59813732226647 0.6652260040999822
2.006701589000732 12.389554103287901 33.921286594039394 191.36036663930642 0.6828840961415297
2.0175614305282674 12.337313561322981 31.34218953176551 201.75184642999434 0.7014352121125074
2.027404065857737 12.28294801732058 29.006098863553042 212.8226556367319 0.7209425477816733
2.0362218499430647 12.226501863163517 26.883616447456887 224.62787444900883 0.7414752070406786
2.0439738924269917 12.167929805541629 24.95378712290964 237.22896709540484 0.7631114275758514
2.0506420474048865 12.107246160104644 23.19929987807809 250.69245001402896 0.7859327983306866
2.0562166022170167 12.044499452776437 21.60327218210231 265.0914860651935 0.810027835474357
2.0606789303639657 11.979693699146603 20.151333251598917 280.5079619163685 0.8354968795643655
2.063833210392677 11.913747683712447 18.8554891352996 297.18081740615173 1.0794546676803156
