M[M_sun], R[km], Lambda[1], P_c[MeV/fm^3], rho_c[fm^-3]
0.24162668629717493 15.618656898711224 2160425.4255784233 3.5677272577965504 0.1711233750220791
0.25364481292893737 15.277270808629776 1723199.358233564 3.7848351261421707 0.17388836650417253
0.26604097238871294 14.98125632131528 1383015.298198007 4.011434112847032 0.17666705541665023
0.27881744066638336 14.723480359063808 1116384.1615093737 4.24777982779868 0.17945811285378457
0.2919728174852567 14.498363438534481 905826.9866187805 4.494497651326926 0.1822681086205581
0.3055092467911327 14.301164792749443 738588.1476121659 4.751743710806454 0.18509275920440602
0.31942780784790575 14.128055174568631 605048.8106412773 5.020199481539252 0.18793866554631652
0.3337272213758662 13.975864691220766 497629.5425958867 5.300090094430312 0.1908024716503512
0.3484082653698005 13.841966299637807 410968.72773708636 5.592142988299888 0.19369045020774514
0.36347197521580005 13.723928581961742 340629.79706484743 5.896526947780384 0.19659769192324478
0.3789265909414033 13.619945204571007 283270.375196264 6.2141054709038865 0.19953186513852286
0.3947607390453457 13.528397769167341 236375.24410460732 6.545134364451443 0.20248911942636647
0.41098650613799736 13.44781338824559 197836.83528364904 6.890319300504471 0.20547322109123992
0.4275956280487978 13.377009249700867 166061.1607104211 7.25036402882647 0.20848721821770888
0.4445913884663534 13.314892886341932 139783.15263910615 7.625525324140805 0.2115266220040987
0.46197520806265013 13.260520441229843 117962.33749849074 8.016756634772713 0.2145976626159576
0.47974115686566376 13.213111261523473 99791.27149621285 8.424761083326105 0.21770195518549124
0.49789924407531144 13.171950399389008 84629.43339276093 8.849976682469594 0.2208369258469277
0.5164397646075646 13.136365171262236 71929.19046275169 9.293282502166782 0.22400606329594505
0.5353597934936493 13.10581026019634 61264.440253777815 9.755560887173484 0.2272122485654402
0.554667670212802 13.079780281557234 52293.83943957787 10.2376216309059 0.23045683292099314
0.574352561150423 13.057826224244744 44722.382456775114 10.739931564337374 0.23373645693097098
0.5944116718928811 13.039493993579171 38321.1169855059 11.263744179220975 0.23705741824238777
0.6148496908716553 13.024480050580316 32894.12656865428 11.809993219466065 0.24042127967677904
0.6356559485367811 13.01241594858248 28285.970378802656 12.379657960344801 0.2438296746691515
0.6568277671756875 13.003024322172923 24366.48085854536 12.973421653117175 0.24728048780837392
0.6783608566658619 12.995969825961096 20861.06440055255 13.592622774232076 0.2507786341235796
0.7002514584769085 12.991056642605107 18168.094661391668 14.23845383884621 0.25432668845198064
0.722485992227448 12.988008085565344 15725.365116545927 14.912104887222892 0.25792663608780514
0.7450769169800716 12.98663913405301 13630.615609224338 15.614596924726662 0.26157828521364745
0.7679996352337635 12.986761037590838 11833.318062818216 16.347213766963463 0.2652837054978281
0.7912467337894866 12.988139728595536 10286.393350000102 17.111563541136885 0.2690475035357339
0.8148234288817978 12.990670110106407 8954.050263849529 17.909101756904224 0.2728721128196871
0.8387070731513716 12.994135671042153 7805.626975723701 18.741179653403563 0.2767584864966264
0.8628894112275262 12.998420690249509 6812.370470441701 19.6091702978009 0.2807073592616788
0.8873716348047642 13.003372875469827 5953.625327955439 20.515146473054376 0.2847249687820781
0.9121252854091422 13.008876827886397 5209.326875533125 21.460902916574778 0.28881432961671366
0.9371522623033693 13.014753134166055 4563.929345832 22.447905709694034 0.2929752161853953
0.96243778552881 13.02096374244792 4003.4432356850807 23.47821705300444 0.29721172082592723
0.9879599693829696 13.027354008354573 3515.48672196021 24.55424252196324 0.30152980227333603
1.0137044606376975 13.03380440960887 3090.894895430867 25.677902823263267 0.30593092924279897
1.0396703394880609 13.040267825936644 2720.6163116737434 26.85120337159213 0.31041668611326695
1.0658232682256672 13.046591154890269 2397.475637215974 28.07722085795321 0.31499565134008467
1.0921562606343478 13.052722316137878 2114.9325302143616 29.357983877381272 0.3196680861281504
1.1186568500949314 13.058552786261801 1867.794264840625 30.696302267875854 0.3244390432986236
1.1452899047080902 13.064006287492253 1651.5634743333162 32.09552140368139 0.32931620997574623
1.1720547616183004 13.069020269331235 1461.5528270621562 33.55764044164477 0.3342976586146079
1.1989125942372474 13.073480769465434 1295.0006161301626 35.08717548681786 0.33939677565434095
1.2258600948379756 13.077345215646112 1148.6639504177435 36.68611655825296 0.34461011685441395
1.2528573712939244 13.08049719152571 1019.8806654720901 38.3595493782278 0.34995232417611105
1.2799015499370523 13.082944733121911 906.3726589587005 40.10975104531035 0.3554201863212055
1.3069466133043877 13.08452511553048 806.5274973518254 41.942124584783414 0.3610278613281644
1.3339840056022805 13.085239226226209 718.3269275676214 43.86022549720103 0.36677767869928896
1.3609945259596234 13.085033978424208 640.3818664844254 45.868673666322515 0.37267700659641423
1.387926923929624 13.083768255954729 571.6026730806354 47.972838605095156 0.378735998600725
1.4147783567853276 13.081461286431114 510.6463091780071 50.17751902765422 0.38496051448746144
1.4415096010934376 13.078020096828128 456.72001759744376 52.487858214955374 0.3913571227807223
1.468104790235824 13.073417237815308 408.86973949842235 54.91031306880961 0.39793771969355957
1.4945151071153762 13.06754744303811 366.3932220243523 57.45107570926365 0.4047113700263146
1.5207270017432561 13.060399354896749 328.72158000590366 60.116776567126465 0.411687848976932
1.5467115499464668 13.051906374625514 295.1800894224308 62.91452384331927 0.4188777006384578
1.5724277980415056 13.042019810993692 265.3617807373792 65.8519467465304 0.4262923012732712
1.5978418871723306 13.030680508948368 238.82170803773744 68.93724289277955 0.43394392792314807
1.6229393577350464 13.017859615562173 215.15412248606216 72.17923029819644 0.44184583298275276
1.6476916083149709 13.00351443514644 194.02149643605145 75.58740445038822 0.4500123254400055
1.67204049820387 12.987577652851265 175.16467090549318 79.17163491958526 0.45845733087555474
1.6959772338868617 12.970017138427101 158.30380752268317 82.94226026511481 0.4671947267200757
1.7194577425835027 12.950800516304758 143.2234523704767 86.91195377229043 0.4762457760734685
1.7424341240061896 12.929823624940155 129.73404021736388 91.09222493613224 0.4856245361762158
1.7649209719950574 12.907198560513683 117.628229825579 95.49731465773188 0.4953535167027488
1.7868476089436702 12.88275899409935 106.78265899427133 100.14074879982948 0.505449664055841
1.8081848395809235 12.856491135857324 97.04669425317763 105.03913390434002 0.5159389818945712
1.828897512463677 12.82835930347945 88.29477799491308 110.20901917313041 0.5268440193152842
1.8489718278286438 12.798371977996496 80.43203512200152 115.66813785698322 0.5381885051034944
1.868346814293435 12.76642582471338 73.35639120925994 121.43652717095428 0.5500011149316912
1.8870219198516425 12.732601341203901 66.98107860209734 127.53562737471692 0.5623116995783903
1.9049469523188745 12.696773421185288 61.23352573003435 133.98803461532248 0.575150090717884
1.9220839253542523 12.658948602029449 56.051981545437016 140.81939467452978 0.5885524187378995
1.9383963768412023 12.619051015299297 51.370359239725566 148.05739162809562 0.6025569408702849
1.9538902286148032 12.577198502227146 47.145681408134756 155.73044221029676 0.6171991083346717
1.9685040597887873 12.533254797947805 43.324233510150414 163.87230192777187 0.6325268620477668
1.9822155829856165 12.487249097387203 39.8638417031421 172.516876110276 0.6485821670302517
1.9950016070658714 12.439158848939515 36.73046102235465 181.70325709592424 0.6654174812252681
2.006834981022712 12.388991060932813 33.88990890923168 191.47358069534096 0.6830876224078614
2.0176789349339828 12.336706259743696 31.315969573326534 201.8739077909525 0.7016518589878478
2.027511877374522 12.282314054014787 28.979588682077708 212.95408806980663 0.721172480959985
2.0363185364444663 12.225833395003999 26.859151701264942 224.7698944740286 0.7417206920349425
2.0440588705032914 12.167230049038537 24.9324960702983 237.3822665974529 0.7633728173091755
2.0507139946424457 12.10651156414995 23.178998054951485 250.85824058466844 0.7862119244740658
2.056283625974279 12.043751875510702 21.586173859369968 265.27112942134 0.8103267724560437
2.0607261171825444 11.978892030751116 20.135194922037083 280.702244929633 0.8358155489250946
2.064026800464414 11.91198677229548 18.814831960146016 297.2418493737826 0.8627868350711404
2.066183799377261 11.843072700540745 17.612677082572727 314.9902464736064 0.8913607375681064
2.0671715168571287 11.772171913758964 16.518071681738018 334.0567420327595 0.9216626229147028
