M[M_sun], R[km], Lambda[1], P_c[MeV/fm^3], rho_c[fm^-3]
0.24162668629717493 15.618656898711224 2160425.4255784233 3.5677272577965504 0.1711233750220791
0.2536453258179581 15.277246106554864 1723131.6660237573 3.7848495907592006 0.17388854679864585
0.2660427761403623 14.98119994668397 1382965.303493828 4.0114645206519155 0.1766674228770268
0.27881975591287234 14.723436339329803 1116345.752002614 4.247827207836434 0.17945866239082234
0.2919768594736383 14.498285413153317 905761.1752369525 4.494563247197705 0.18226883904580324
0.30551406290439104 14.301104429803312 738541.5398050406 4.751829750154209 0.18509368859357034
0.31943249929596906 14.128011867424581 605011.8442162261 5.020306598477757 0.18793977692589686
0.33373242979649703 13.975869615191124 497612.6172842087 5.300221109475901 0.19080379075446702
0.34841600903211134 13.841900862984115 410928.3273693304 5.592298228899519 0.1936919522032518
0.36348184377929016 13.7238400168724 340604.7922973399 5.896709902126378 0.1965994102691796
0.37893648209974956 13.619884086367554 279325.16138559027 6.214318353481211 0.19953380637130075
0.39477159665652767 13.528334589169546 236361.13472189044 6.54537695456668 0.2024912466139539
0.41099943647830584 13.447774156669212 197814.5619945356 6.890596281992409 0.20547557998182198
0.427608877676209 13.376974845331802 166038.28183022843 7.2506780014171275 0.2084898156324871
0.44460788724231937 13.31484349181443 139761.13967057015 7.625875420353608 0.21152940899506373
0.4619903096660978 13.260467709908909 117936.87076931134 8.017148961971188 0.21460069758402073
0.4797601360317883 13.213066852752842 99777.07327304063 8.425198701499225 0.2177052454623741
0.4979197403022695 13.171909164828577 84610.40132623259 8.850457978303893 0.22084041063440993
0.5164626906652414 13.136316061857178 71914.1179977211 9.29381526564406 0.22400981398403902
0.5353841647212555 13.105767493761672 61256.35284786052 9.756148731384247 0.22721627325807114
0.5546940574168769 13.079739234189427 52282.71184052014 10.238262839788545 0.23046106872908487
0.5743797880444211 13.057809166243725 44710.9100110787 10.74063442532787 0.23374096951624906
0.5944407315494049 13.039470517140321 38312.30800507385 11.264513715196866 0.2370622263170909
0.6148808155602651 13.024463633028192 32888.29590766845 11.810833977525931 0.24042639288855688
0.6356885797792448 13.012402004380709 28278.827974691358 12.380574771313851 0.24383510317492935
0.6568623655997566 13.002990369659614 24359.44087680918 12.97441030678533 0.2472861385473246
0.678397872638491 12.995974250195708 21017.814335611394 13.593697311971193 0.2507846168618251
0.700290047763969 12.99105468909047 18163.78333785896 14.239620023509433 0.2543330150606943
0.722529487809436 12.987983642645341 15720.73735093271 14.913368851994191 0.25793331914600615
0.7451201435369963 12.986644169193461 13627.028501935964 15.615952862572286 0.26158521586848515
0.7680440866900963 12.986767677973454 11829.766835863835 16.348680043286592 0.2652910145175441
0.7912933377648503 12.988152789160955 10284.311256606823 17.113147516648535 0.26905520587226794
0.8148710849380293 12.990685197937895 8951.074329314242 17.91081128039531 0.2728802243864155
0.8387577934866646 12.994153556866761 7753.515257296451 18.74300714177747 0.27676688286013656
0.8629437819898204 12.998427545115455 6768.0809893811875 19.611139517230278 0.28071619390733665
0.8874287006189235 13.003375810641117 5916.0156736458775 20.517266903678927 0.2847342608378528
0.9121885536742694 13.00887862690104 5208.157382984556 21.463184687810095 0.288824099500372
0.9372128271647774 13.014769480208912 4562.878679270102 22.450339315402857 0.2929853239980248
0.962499967581024 13.020975972453082 4002.013555854488 23.48083303921478 0.29722234512321266
0.9880259072762759 13.027355475476273 3514.402587188534 24.557053204976047 0.30154096778265205
1.013772878979049 13.033816178906733 3090.129856988515 25.68089732182986 0.3059424855894753
1.0397400662345195 13.04028341293089 2719.7024502489617 26.854418301618715 0.3104288315399964
1.0658940842585503 13.046608501887972 2396.7463632005165 28.08067127226218 0.31500841592296863
1.0922315430901195 13.05274134202419 2114.3883861327936 29.361657545226794 0.31968130907675074
1.1187335687391846 13.058567601767194 1867.128069740773 30.700243058600183 0.3244529446932606
1.1453686092047946 13.064031001184684 1650.88267630466 32.09971645325705 0.32933062375289246
1.1721360327176245 13.069032823654172 1461.151156695348 33.562138968453624 0.3343128191137713
1.1989947116255493 13.07349245197104 1294.4851372903747 35.09199872849128 0.33941272480697116
1.2259428277272348 13.077353254512238 1148.1938212351074 36.69125051560883 0.34462667820612447
1.2529444312697873 13.080511880256934 1019.4033316945328 38.36501489093005 0.34996953455165064
1.2799906292661025 13.08295000003975 906.0331456733373 40.11561024936988 0.3554383127411321
1.3070442393262713 13.084552182065735 806.1701419971041 41.948363462448754 0.36104672240053254
1.3340771896359724 13.085237072760071 718.0164014462233 43.86691401372959 0.3667975604294579
1.361087831165466 13.085029248696333 640.1456991589415 45.87579780416461 0.37269772262151807
1.3880293720925692 13.083777406015642 571.3573500247127 47.98042880091164 0.3787576027481872
1.4148748525212225 13.081450643169969 510.44168556987665 50.18565853172904 0.384983322274871
1.4416072090374272 13.078006019634367 456.52226972113584 52.49653410318975 0.3913809435192395
1.4682034237302608 13.073398102558663 408.7026046246599 54.91956376679341 0.3979626209088302
1.4946145794874648 13.067522981112726 366.2435927412819 57.46094275558831 0.4047374244648762
1.520827728149956 13.060366906700592 328.5864624796456 60.12730489214852 0.4117151350350481
1.5468127383548036 13.051870567208312 295.05775669952294 62.925762075744174 0.41890630283345826
1.5725305969228083 13.041977301765206 265.2491558814186 65.86394755091516 0.4263223107619607
1.597944109783108 13.030632137767983 238.71604231107767 68.95006334142978 0.43397544307237906
1.6230539947645815 13.017815997664862 215.05236754520365 72.19293228136112 0.4418789599978706
1.647795012736809 13.003451056708531 193.9310319309617 75.60205512913879 0.4500471790575567
1.672143286078752 12.987504808025669 175.09591757210728 79.18723070153248 0.4584937156564103
1.6960800519663282 12.969941993149229 158.2320790931945 82.95895335571423 0.467233087393655
1.719559154990559 12.950713196717514 143.15865430900197 86.92983012819045 0.4762862572242476
1.7425416669924794 12.929759694411386 129.67037125898315 91.1112919972948 0.4856669533689696
1.7650213382479425 12.907092269635148 117.57708226945161 95.51775616003712 0.4953983699231722
1.7869318321813823 12.882610703562662 106.73139003122566 100.16258254401114 0.5054967803285548
1.8082822346303962 12.85636623309645 97.00170842313963 105.06247314146664 0.5159885428135306
1.8289853567945717 12.82820709476525 88.26049788221995 110.23398743457176 0.5268962213082068
1.8490652137594945 12.798225925819471 80.39809638628847 115.694972046774 0.538243935279835
1.868437709753374 12.766267471626183 73.32371042788806 121.46527612292276 0.5500596372625836
1.8871137065802095 12.732426252656419 66.95136552839179 127.56634320625099 0.5623731748833182
1.9050313024602532 12.69659150954899 61.20279182390949 134.02099932794144 0.5752151732960463
1.9221689940533142 12.658752030934599 56.02782820531111 140.85480162851414 0.5886214049488452
1.938477255953351 12.61885429711774 51.353345567389084 148.09545292575137 0.6026301536699934
1.9539667202358522 12.57697630088975 47.123453619548606 155.77126539984206 0.617276472365319
1.9685760177570055 12.533020240266266 43.30404835654362 163.916134473827 0.6326087416080716
1.982286540650375 12.486999329409144 39.84569120226714 172.5641217462173 0.6486694009312863
1.9950675352588643 12.43889434929994 36.714477810948914 181.75408713825632 0.6655100688521745
2.0068972303968415 12.388711037886948 33.87476899243091 191.52832533775072 0.6831860375080846
2.0177358116891333 12.336413114962856 31.302225597098552 201.93293128260876 0.7017566198633503
2.027567090327707 12.282004936379579 28.968938383711972 213.01764375269207 0.7212836678247773
2.0363652125855904 12.225510594449256 26.848076707212993 224.83857083274464 0.7418394007559355
2.0440995977652268 12.166891108129017 24.92241327299392 237.45639830835572 0.7634992186861197
2.0507497533718664 12.106156126532381 23.169441651494726 250.93836342043357 0.7863467406886328
2.0563122835861747 12.043380859940788 21.576435042349726 265.35783815110454 0.8104707983467724
2.0607481510700856 11.978503847310405 20.126526931835972 280.79619916726904 0.8359696557424748
2.0640430175920077 11.911579045160646 18.807532338020344 297.3437843147855 0.8629519879403815
2.0661893236863027 11.84264779154677 17.606304708461092 315.10098097545034 0.8915380017257583
2.067174135720971 11.771733974644606 16.511764672439842 334.1770067050622 0.9218525713579306
