M[M_sun], R[km], Lambda[1], P_c[MeV/fm^3], rho_c[fm^-3]
0.24162668629717493 15.618656898711224 2160425.4255784233 3.5677272577965504 0.1711233750220791
0.25364426883324975 15.27728768524201 1723223.245305336 3.7848249495918567 0.1738882396583822
0.2660404773964016 14.981261802858665 1383049.758672344 4.011412719599891 0.17666679689188397
0.2788162156158751 14.723464957421491 1116370.9259762987 4.247746493977359 0.17945772623169026
0.29197078643864627 14.498384891458507 905844.0185729957 4.494451502112357 0.1822675947383432
0.30550606270948794 14.30122251249094 738653.3984645294 4.751683179087482 0.1850921053463146
0.3194241392467878 14.128096148243587 605116.9666168161 5.02012412130515 0.18793788365480135
0.3337216594276684 13.975905615867275 497664.3836160285 5.299997921500356 0.19080154362188909
0.34840278864751867 13.84201256421162 410997.5383207924 5.592033772419316 0.19368939351405634
0.3634661746564484 13.723957514101775 340624.6016633529 5.896398235084552 0.196596483026367
0.37891967444422553 13.619982982199234 283304.4617269496 6.213955703616076 0.19953049944118958
0.39475127775888674 13.528450215940108 236403.6458098865 6.5449636979472405 0.20248762291168376
0.41097728903993697 13.447881192037862 197862.65358060118 6.890124439848122 0.20547156157612034
0.4275856992805317 13.377065096229497 166075.31004940672 7.250143145268531 0.20848539090464166
0.44458182302773863 13.314928379376504 139798.96396101988 7.625279028068729 0.2115246613289971
0.46196297028339234 13.260558187350126 117975.76243222547 8.016480629896567 0.21459552749510025
0.4797282879608586 13.213136017683174 99802.24557915179 8.424453217163046 0.21769964046233403
0.4978854052214493 13.171974848092974 84639.84341052898 8.849638090077834 0.22083447429334196
0.5164238136126801 13.136398079853361 71937.26007084819 9.292907703676583 0.2240034246912081
0.5353441206531899 13.105829627634925 61273.87136886124 9.755147341068941 0.22720941720990578
0.5546504045314196 13.079814139286485 52296.813581332484 10.237166641225283 0.2304538028672123
0.5743327565804701 13.05783489506828 44728.4366501117 10.739437107963578 0.2337332823678878
0.5943897940638014 13.039522215541487 38323.45131897605 11.26320281968911 0.2370540358182361
0.614827340477017 13.02449971650276 32899.23680246161 11.809401758317946 0.24041768260616736
0.635632200801968 13.012429372072202 28290.497568312363 12.379012999563104 0.24382585580850508
0.6568033374534994 13.003018710764872 24369.45594044535 12.972726154487843 0.2472765126234113
0.6783354603192212 12.995973982016164 21026.726789476033 13.591866860733276 0.25077442539973965
0.700224452809939 12.99105537524587 18171.64169439904 14.237633456920921 0.2543222378399972
0.7224588868011336 12.988001973673319 15729.216046587482 14.911215722845702 0.2579219347405699
0.7450463243064369 12.986656873445433 13633.110938032683 15.613643062865943 0.2615734097045371
0.7679671555994112 12.986757621222909 11835.256414168853 16.346182289245004 0.2652785638401051
0.7912127574042519 12.988139041984844 10288.267046256935 17.110449270170797 0.26904208521334966
0.8147879305641258 12.990665036803822 8955.822319131921 17.9078991720203 0.27286640664040185
0.8386703454026851 12.994131641319177 7806.994749782881 18.73989408877578 0.2767525799923307
0.8628523110492585 12.998405173614358 6771.892450586415 19.60778503646978 0.28070114446772465
0.8873330199092271 13.003352975728008 5954.957666426011 20.51365484698257 0.28471843224535115
0.91208919575198 13.008855324481212 5210.850731714001 21.459297801079508 0.2888074569769835
0.9371090030941427 13.01473993953548 4565.00815945068 22.446193791476123 0.29296810585173655
0.9623933910602356 13.02095017546087 4004.314338430567 23.476376846677894 0.2972042472012566
0.9879145414801992 13.027332502594831 3516.3425590437105 24.552265364785836 0.3015219479664708
1.0136564498146723 13.03379373010389 3091.582834142423 25.67579636903925 0.3059228000302683
1.0396209777565637 13.040245061694922 2721.23395770051 26.848941865958217 0.31040814255221033
1.0657728701013598 13.046572671913484 2398.0110312226434 28.07479371357269 0.31498667227761784
1.0921061464565558 13.052700260442126 2115.601785283716 29.355399697107128 0.31965878466585823
1.1186027469617992 13.058548188789441 1868.4244828215506 30.693530196068277 0.3244292646356966
1.1452349880568093 13.063993077972231 1651.9828297746878 32.0925704885061 0.3293060709218574
1.1719983081189642 13.069011378176628 1461.9951831744297 33.554476065606636 0.3342869943410986
1.1988539270729923 13.07347015332554 1295.388374096607 35.0837827129029 0.33938555667078724
1.2258008823200783 13.07733382657071 1148.9643501728826 36.68250523285651 0.34459846727770616
1.2527961150074243 13.080501142539143 1020.0629792566283 38.3557048441156 0.34994021810675396
1.2798406405044047 13.082930625424442 906.6386711094383 40.105629600506546 0.3554074359478683
1.3068827942735246 13.084523284164915 806.6862334384498 41.93773608853776 0.3610145942391595
1.3339205694326879 13.085238411650682 718.519977182672 43.855520741634805 0.36676369373262574
1.3609297543053354 13.085034170024516 640.5718240418549 45.863662510405874 0.37266243483572276
1.3878601904645356 13.083777463011899 571.7482807588618 47.96749964231963 0.37872080218921117
1.4147175262510867 13.081481873734935 510.771316969224 50.17179370766743 0.3849444715099152
1.4414401530420173 13.0780299452713 456.8168170166412 52.48175562747496 0.39134036736194305
1.4680354133499398 13.0734329072895 408.9870334232322 54.90380618911255 0.3979202043436519
1.4944443555994804 13.067565509562082 366.4955695567872 57.44413532343469 0.40469304358390973
1.520656400857438 13.060417723957734 328.80704497394754 60.1093710760373 0.4116686563076504
1.5466401093878275 13.051930314319216 295.26601536682404 62.90661904704836 0.41885758230348913
1.572357467940055 13.042048681685309 265.44546909345036 65.84350560704274 0.42627119316485956
1.5977805326901442 13.030721767441122 238.89689153682687 68.9282252724244 0.433921760863402
1.6228679504412789 13.017896802321822 215.21507131658322 72.16959267127771 0.44182253228176666
1.6476193022572454 13.003560102840845 194.08084647366093 75.57709958472402 0.4499878104087983
1.6719685878891715 12.987625532573714 175.21530821954013 79.16066534063096 0.4584317389733545
1.6959056261950203 12.970072297135243 158.3449653528799 82.93051893339722 0.467167745173985
1.7193854880535395 12.950862974748278 143.2630603197461 86.89938023862132 0.47621730320600425
1.7423666532957556 12.92991232477592 129.77082133357712 91.07881396716984 0.4855947017066747
1.7648503553271706 12.907275581892597 117.66655454011607 95.48293704304699 0.4953219690057648
1.7867775584490133 12.88283561980339 106.80876394458409 100.12539201987461 0.5054165247909335
1.808116813228145 12.856579389972357 97.07777753398081 105.02271831630785 0.5159041233589765
1.828825801575805 12.828445428523189 88.32112434464557 110.19145790540213 0.526807303375898
1.8489055727179673 12.798478560602844 80.45543259015737 115.64926431459517 0.5381495188776794
1.8682817957207931 12.766540100482468 73.37925891177274 121.41630701132853 0.5499599540965551
1.8869604641926714 12.732719127440554 67.002121491053 127.51402394484444 0.5622684620239251
1.904884000647768 12.69690276761033 61.25228816190825 133.9648496104721 0.5751043163194293
1.9220255155182784 12.659084720969362 56.06957568478052 140.7944921229542 0.5885038990974686
1.9383387985482476 12.619198406146577 51.3870268901156 148.03062237999126 0.602505448889703
1.9538357724261544 12.577352196978325 47.15816533362517 155.70173063472902 0.6171446970249016
1.968453967758631 12.533421915566002 43.338011717030106 163.84147400946023 0.6324692752401628
1.982166852103687 12.487422940994323 39.87563304184286 172.48364795543512 0.6485208148754293
1.994957169559463 12.439346388262411 36.74201835497875 181.6675082350651 0.6653523641795271
2.0067927471237814 12.389186900951016 33.90049803163221 191.43507894600623 0.6830184073513232
2.017640844001932 12.336911671972192 31.32597437507526 201.83239702663664 0.7015781814758864
2.027474798616305 12.282527501396622 28.98908376250825 212.90939014488072 0.721094284614519
2.0362859181239856 12.22606165420927 26.867459372239257 224.72159560133903 0.7416372062836656
2.0440311319175186 12.167466179563684 24.940648297278862 237.33013144514422 0.7632839220852725
2.050689676000356 12.106760828095043 23.184745729584872 250.80189243083618 0.7861171119936419
2.056262628378649 12.044014637427724 21.59199634183648 265.21003429687903 0.8102251066193887
2.0607087402502864 11.97916526615149 20.13966725497486 280.63617058594855 0.8357071716227832
2.0640146697463306 11.912269780924792 18.81939749224334 297.170163116905 0.8626706904901752
2.0661761334561777 11.84336928773037 17.617425535818988 314.9123725630231 0.8912360767538818
2.067168982130406 11.772475415264863 16.52215330158487 333.97216677014165 0.9215290430432223
