M[M_sun], R[km], Lambda[1], P_c[MeV/fm^3], rho_c[fm^-3]
0.24162668629717493 15.618656898711224 2160425.4255784233 3.5677272577965504 0.1711233750220791
0.2536336954995213 15.277556478032613 1723523.0461727884 3.7846258862965656 0.17388575843043771
0.2660178173601037 14.981748370612982 1383507.387528066 4.01099426313626 0.1766617400924771
0.2787803781285751 14.724147741964211 1117048.9016799023 4.247094502042867 0.17945016410778103
0.2919231676909923 14.49914272054611 906534.9413421594 4.493548881180265 0.18225754384477696
0.30544487622006616 14.302021066214554 739294.9411731442 4.75049929867279 0.18507931717836618
0.3193465264051152 14.128999825130379 605692.9048993202 5.018650276701271 0.18792259194818434
0.33363121887585495 13.976830894820377 498282.14349557686 5.298195331320059 0.1907833945298115
0.34829495363994917 13.84293080861017 411558.5762121586 5.58989795254844 0.1936687288692618
0.36334205949139764 13.724868767165061 341149.74389630405 5.893881226299239 0.1965728427471995
0.37877874463950795 13.620864646572667 283754.37787405186 6.2110270707027455 0.1995037938353236
0.3945936871231588 13.529293992275827 236828.1277789478 6.541626497998189 0.20245836017646687
0.4107997023413677 13.448670990463967 198235.93114055638 6.886314281477021 0.20543911266856116
0.42739017925487033 13.377794813332885 164396.62826593482 7.245824303651909 0.20844966223477163
0.4443645914151439 13.315665810125411 140106.65819143475 7.620463455150385 0.21148632627216388
0.46170324068209007 13.261300765516756 118263.18612589696 7.994630721969481 0.21841452808835293
0.4785042806912536 13.21474940356651 100867.17482180138 8.426676724225523 0.2530417248616576
0.49449842398899696 13.173023846046299 86942.4213259009 8.871404042163286 0.2845729469493392
0.509902004980729 13.133898419396546 75509.76179254906 9.3461645872441 0.31520417766171244
0.5248771778780653 13.096033840235222 65936.10804626535 9.851570911891367 0.34486081575678845
0.5395588668312811 13.05864016125572 57801.837249021075 10.38823913133738 0.37351734560763594
0.5540675625806771 13.021289141453655 50802.97153924778 10.95683109432822 0.40118598432451874
0.5685122139602888 12.983777861559858 44728.467467179944 11.558086335793158 0.4279063035410886
0.5829753239597636 12.946090278106123 39421.053368217756 12.192845863906916 0.45373657333321527
0.5975327738329749 12.908113528065828 34760.505051060165 12.862069849516692 0.47874697875660854
0.6122594839472297 12.869997763909028 30659.030298045956 13.566851053322466 0.5030145598570385
0.6272170935998449 12.831956407818856 27026.33571718684 14.307417700027251 0.5265078335650724
0.6424224323729569 12.793862868121096 23821.845287699707 15.083414288034202 0.5491658312016969
0.6579535763652259 12.756088969579263 20979.994182143037 15.89844340678211 0.5713262824452014
0.6738171513602634 12.718590815888632 18466.99674159464 16.75420798184785 0.5930682473033402
0.6900661666068172 12.681751006289923 16246.689003384812 17.648498639548745 0.6141746853661281
0.7067135208622108 12.645601327472729 14279.492450627129 18.585353638499207 0.6349134454673735
0.7237602583940059 12.610175450546999 12545.335562548255 19.566939311644695 0.6553726065103403
0.7412430168970159 12.57557114944567 11014.944115841845 20.591322092125647 0.6753853204336584
0.7591481704472456 12.541980821849661 9666.78484102542 21.664796182503267 0.6952075663459696
0.7774998032663774 12.50941246381283 8479.892953113213 22.784631608111138 0.7146522400675477
0.7962900087241929 12.477948348542723 7436.300791711922 23.95615667813528 0.7340893713764686
0.8155038525062069 12.44748042264175 6480.579393353821 25.181084344730685 0.7535379198959223
0.8351460319668823 12.418099198612365 5715.450767791474 26.45874423604085 0.7729398177319832
0.8552093043006392 12.389981881092654 5011.048121613763 27.794767834584118 0.7924576990548504
0.8756684145192839 12.362996064804754 4393.936679658284 29.19115897318068 0.8121118534082921
0.8965252615140796 12.337003873533853 3853.997165590097 30.65023670422306 0.8319323216972849
0.9177377766923537 12.311980916783005 3381.1767400866966 32.17463774216637 0.8519561009566813
0.9393052848398482 12.287954143170618 2967.5330604188403 33.767215175985214 0.8722226543460855
0.9611941921662426 12.264785480348369 2606.3502614843146 35.43157765864388 0.892786068957496
0.9833841309191618 12.242469341013994 2290.21252237418 37.17103795334299 0.9136877050464802
1.0058494832252836 12.22069638998539 2013.8703883911896 38.989689824374764 0.9349824483575588
1.0285664179312768 12.199802371602132 1772.3870816515398 40.89189447122071 0.9567252218623518
1.0514994942162064 12.179380467595848 1561.0146466966203 42.88240791964426 0.9789736441839538
1.0746144065510947 12.159472435445577 1376.1835143231729 44.964561106124535 1.0017535702727474
1.0979015737044924 12.139857785206008 1214.3433869130163 47.14334183612859 1.025120700962637
1.1213004722093727 12.120329745815198 1072.6174598618484 49.42547375243662 1.0491571330796956
1.1447864138939954 12.101170964101485 948.6319180331564 51.81454875527122 1.0738851340092745
1.168330323979335 12.081965335032107 839.7036662657729 54.31786257054891 1.099388225781195
1.1918817797734973 12.062641210449966 744.2183823065873 56.94227574713862 1.125736393432484
1.2154166854837507 12.04312558329271 660.3640747726461 59.69391110309332 1.1529846806956257
1.2388972025101455 12.023486119113098 586.7268601906574 62.57963000973009 1.1811972024487505
1.2622753566319098 12.00323220471684 521.8941236749899 65.60842215121791 1.2104654344014896
1.2855230470226275 11.982676031186559 464.83177672373154 68.78867695548529 1.2408677255327523
1.3085913493417514 11.961465160641595 414.6006801109255 72.12866172564583 1.2724779871199905
1.3314400085517197 11.93957061176701 370.26202835768 75.63941056030404 1.3054037542144772
1.3540407672854962 11.916898729386773 331.1340146118012 79.33224941225012 1.3397515369818125
1.37631922963667 11.893377814114963 296.56783682552714 83.21625452602035 1.3755966792330006
1.398289760111899 11.868890154198418 265.98456100076305 87.30650894434686 1.4130856008245771
1.4198654245710745 11.843326552660393 238.8768207671356 91.61463684340912 1.452318578429911
1.441015067299996 11.816618349935295 214.85787620419987 96.15551435788075 1.4934316797265845
1.4617120266328338 11.78871704741474 193.53624675786384 100.94524161012579 1.5365710871629015
1.4818900905377212 11.759462005372926 174.58632978238597 106.00077754962253 1.5818889363627402
1.501550447138649 11.728945756341863 157.73854863537596 111.34007617907558 1.6295450057225405
1.520611069385712 11.696934427540741 142.73356795403748 116.98291286821106 1.6797154827422416
1.539065586618228 11.663376072007695 129.35295368959228 122.95221050198843 1.732606145521296
1.5568345722472967 11.628294967181366 117.42285233418947 129.26992659892593 1.7884090457695048
1.5739375579241772 11.591567588592463 106.75586756354399 135.9625373793265 1.84735953214205
1.5902915522175483 11.553155981161872 97.21104879229401 143.0579974463592 1.9097041449161172
1.605888396190962 11.513000933026845 88.66178485553165 150.58675982150444 1.9757112187183619
1.6206808169631532 11.47103383613106 81.00035463078915 158.58153270981563 2.0456690182878465
1.6346210992758436 11.427270722363216 74.12833980912478 167.07883095044528 2.119902332854607
1.6477103625379284 11.381639281729056 67.94249910755342 176.11823989939177 2.198769393427473
1.6598943756019462 11.334075719522279 62.3944664174663 185.7433288253313 2.2826822651848766
1.6711611905714736 11.284621106608629 57.390436113359215 196.00142383938964 2.372141199836383
1.6814628967387746 11.233179842418368 52.88346548700062 206.94496499209515 2.4678784728828957
1.690799925868092 11.179816726831703 48.81357807161388 218.63039554253533 2.5715091540397643
1.6991189420977413 11.124432194457397 45.13991599286094 231.1221025532585 2.6908333861944547
1.7064242514086632 11.067120162198748 41.819772140249164 244.4907059317999 2.812193399883743
1.7126827514867784 11.007757279484068 38.813049990028006 258.80457444292597 2.9056716713384567
1.7179215555135683 10.946397451879648 36.08783311554096 274.1458508409919 3.0047355980986654
1.7221209098117163 10.883127041500305 33.61885680230361 290.6055151182674 3.109794686702197
1.7252543477573592 10.81788655302746 31.372208677006263 308.2860557121741 3.2213167555934135
1.727314289813209 10.750760669740899 29.335314028956233 327.29940510071765 3.3397928529685124
1.7282883965306264 10.681785441318814 27.48403513682224 347.77164442365984 3.4657834761512767
