M[M_sun], R[km], Lambda[1], P_c[MeV/fm^3], rho_c[fm^-3]
0.24162668629717493 15.618656898711224 2160425.4255784233 3.5677272577965504 0.1711233750220791
0.2536443982796013 15.27726141840493 1723185.0334946164 3.7848269780521977 0.17388826494216178
0.26604069374267025 14.981234901319642 1382985.0039188133 4.0114169838432545 0.17666684842274843
0.27881588237627025 14.723522298731773 1116385.2742927524 4.247753138285052 0.17945780329564673
0.291971384189335 14.498398759316778 905859.9150868098 4.494460700851904 0.18226769716844296
0.30550802091407836 14.301162886835696 738622.0916165349 4.751695244616891 0.18509223567705962
0.3194236815969865 14.12811668081539 605068.4818114296 5.020139142518534 0.18793803950568785
0.33372415765821345 13.975860569065397 497661.1570590489 5.300016293885974 0.19080172860132696
0.3484038791649558 13.842003363024903 410991.8060534353 5.5920555418652516 0.19368960413943434
0.3634671983728756 13.723964077183346 340632.8133758585 5.896423890695866 0.19659672398929778
0.3789213245340069 13.619980536919284 283283.85511401587 6.21398555588514 0.19953077165793898
0.39475215099150635 13.528475893338493 236402.01206991964 6.544997715896453 0.20248792120314235
0.41097921102406765 13.447870528851732 197857.77777201243 6.8901632802226995 0.205471892357049
0.42758718376091903 13.377043128821859 166074.11886243464 7.250187172568683 0.2084857551312126
0.4445838846148465 13.314921513729256 139796.03572675545 7.625328120622954 0.21152505213729514
0.4619653745373381 13.260554584848714 117975.48008868356 8.016535644035983 0.21459595307394566
0.47973078745791947 13.213133845390209 99805.6164669576 8.424514581911312 0.21770010183945465
0.4978890225826184 13.171960138971476 84638.36491033966 8.84970557918627 0.22083496294332292
0.5164273703738602 13.136392955313061 71934.92344087124 9.292982409380956 0.22400395062402423
0.5353465473098642 13.10583132758539 61269.63560608575 9.755229769931036 0.22720998156152783
0.5546538741944953 13.07979241679943 52302.37028876979 10.23725733058939 0.2304544068229992
0.5743368330122586 13.057831501048256 44324.60477379069 10.73953566379101 0.23373391512682867
0.5943946288210629 13.039538666605386 38324.01407450877 11.263310724190333 0.2370547100075124
0.6148319652981825 13.024520976521702 32621.192838401006 11.809519648989326 0.24041839957814556
0.6356373991223799 13.012424606171038 28290.09127443571 12.379141553674865 0.2438266169869399
0.6568081713128534 13.003008958530511 24368.781766212836 12.97286478169598 0.24727730495968625
0.6783406281180238 12.995972691429102 21026.07220876775 13.592017529678396 0.25077526428405944
0.7002297037082087 12.991047960457532 18171.09729267124 14.237796975527598 0.25432312493641895
0.7224635083324998 12.988000388574056 15727.851235964936 14.911392950951868 0.25792287181237383
0.7450527103401094 12.986641042205802 13632.499391380745 15.613833186264197 0.26157438148923506
0.7679737279593201 12.986763688306231 11835.013115581703 16.34638788274593 0.26527958867214263
0.7912201624349875 12.988141198829881 10219.247500493042 17.110671365686922 0.2690431651886367
0.8147956742541672 12.99066399005972 8955.36019845073 17.908138869882126 0.272867543989617
0.8386788127375849 12.994132241383703 7806.711871357226 18.740150325798016 0.2767537572688673
0.8628588311329994 12.99840323349631 6813.505840962095 19.608061144549858 0.2807023831905477
0.8873404735705867 13.003363551027164 5954.653573884325 20.513952155128035 0.28471973509574294
0.9120970374762671 13.008847334683766 5210.530534297628 21.459617729309738 0.2888088268170183
0.9371174923546529 13.014744749606695 4564.679954822266 22.446535007038776 0.29296952306692514
0.9624022537594821 13.020949399552078 4004.080729460967 23.47674363184556 0.29720573682480494
0.9879237024423412 13.027334634353746 3516.201053642822 24.552659446120202 0.30152351346453304
1.013666047678291 13.03379296537351 3091.701881128566 25.67621622104159 0.3059244203200042
1.0396313370420833 13.040246845654329 2721.040541840408 26.84939262172607 0.3104098454263339
1.0657818189831727 13.046583421693414 2397.8379103454868 28.0752774832466 0.3149884619520008
1.0921148375970913 13.052705374789106 2104.956074323571 29.35591476604285 0.31966063859777294
1.1186105555622745 13.058551218286706 1868.2877903644132 30.69408271406231 0.32443121367872285
1.1452455034200002 13.064005357186863 1651.8690378033577 32.093158652166686 0.32930809179426335
1.1720091979947596 13.069010836545875 1461.8893915467715 33.55510677447354 0.33428911989500887
1.1988662128001029 13.07346831769671 1295.2557355404576 35.08445894401691 0.3393877927837546
1.225812206391666 13.077332722911 1148.906646270913 36.68322502374397 0.3446007892116879
1.2528091407428972 13.08049479656346 1020.0451937855509 38.356471116063325 0.3499426310236575
1.2798535574978063 13.082938280841113 906.5749646137684 40.10645106359288 0.3554099772802243
1.306895450818138 13.084525789058729 803.2724283909905 41.93861077774073 0.3610172385571349
1.333930894770359 13.085241873165044 718.4914511007943 43.85645846435257 0.3667664811294974
1.36094108517551 13.085031641717482 640.5140571592538 45.86466130168106 0.37266533918507544
1.3878737091377606 13.083771575136277 571.7339890076425 47.96856376857517 0.37872383103604185
1.4147303031103502 13.081481814974783 510.75348835901787 50.17293483823263 0.384947669083514
1.441454418567212 13.078026748163406 456.81404822288437 52.48297195072244 0.39134370692986364
1.4680487143317613 13.073431067273235 408.95687011520397 54.905103091169735 0.39792369537074707
1.4944583505087934 13.067561613580304 366.4765193816956 57.44551862673102 0.40469669626674515
1.520670684494488 13.060414438326415 328.78458854975213 60.11084707836958 0.41167248163459785
1.5466543371721946 13.051926331230508 295.2537514802803 62.908194564544715 0.41886159212077656
1.5723703238983906 13.042044741102554 265.4221911271367 65.84518802145764 0.4262754002492129
1.5977956052101758 13.030714975202324 238.88872556820854 68.93002258325382 0.4339261790019983
1.622881472547822 13.017890364506746 215.19654205958616 72.1715135532403 0.4418271763602953
1.647633524749138 13.0035512098003 194.06600325669413 75.5791534512231 0.44999269650852647
1.6719827650714212 12.987617725688994 175.19941695668084 79.16285168840426 0.45843683969769616
1.6959199946371488 12.970063553886408 158.34166151555627 82.93285909537029 0.46717312285938345
1.7194009169760962 12.950849702017077 143.25791695478446 86.90188626226863 0.4762229781165783
1.7423830914457117 12.929912365733326 129.7608087079234 91.08148689556937 0.48560064798849406
1.7648639760168205 12.907259829213801 117.65855494053925 95.48580262758806 0.4953282567381019
1.7867918423294595 12.882823806865968 106.81049459039399 100.12845275576838 0.505423129726206
1.808129756801668 12.856561433339861 97.06962098389512 105.02599007622018 0.5159110709480081
1.8288392276123828 12.82842567512205 88.31614167803363 110.19495800264032 0.52681462114817
1.84891902426468 12.798457380461135 80.45330610324216 115.6530259508554 0.5381572891201521
1.8682951573418727 12.766516389802156 73.37733410473217 121.4203370310647 0.5499681577399005
1.88697328313669 12.732694489708352 66.99772034505067 127.51832965306065 0.5622770795580208
1.9048963403130104 12.696876342344511 61.247019975140404 133.96947052825755 0.57511343944592
1.9220359459869065 12.659059474637761 56.0657048913331 140.79945534875822 0.5885135693487541
1.9383502503571413 12.619168542215553 51.38288959156002 148.03595763848676 0.6025157115248648
1.953846762903961 12.577322312985551 47.15863982695554 155.70745299893076 0.6171555414778807
1.968461657663417 12.533391295157374 43.33178821247202 163.84761815950367 0.6324807525635053
1.9821762666935696 12.487387776133033 39.87345460798173 172.4902704689788 0.648533042622597
1.9949654086354227 12.43931106864953 36.74029062897104 181.67463312097533 0.6653653422580047
2.0068018368619467 12.3891471859899 33.89896553851326 191.44275247628542 0.6830322021487363
2.0176465491952986 12.336871433290527 31.322802824219984 201.84067024495153 0.7015928656223096
2.0274830479945023 12.282484263680217 28.98871334253714 212.91829855434932 0.7211098693439111
2.03629223808503 12.226016954854115 26.865760395991792 224.73122166506909 0.741653845163987
2.044036239909267 12.167419603266753 24.938349191823498 237.3405220626099 0.7633016390425499
2.0506950498603405 12.106710459172618 23.184194376181704 250.81312267836802 0.7861360082227435
2.056266502005432 12.043962830550226 21.590694816332338 265.2222105872984 0.810245368674074
2.060712754154591 11.979111237911523 20.139057006702394 280.6493392044293 0.8357287712220607
2.0640171253592077 11.912214252850791 18.81907605955435 297.18445015005966 0.8626938380438524
2.066178333216254 11.84330944486281 17.61652207153009 314.92789274738806 0.8912609215164649
2.0671686427423643 11.772414054276448 16.52086820612094 333.989022478503 0.9215556652881545
