M[M_sun], R[km], Lambda[1], P_c[MeV/fm^3], rho_c[fm^-3]
0.24162668629717493 15.618656898711224 2160425.4255784233 3.5677272577965504 0.1711233750220791
0.25364353806771467 15.277275540018143 1723231.7175817045 3.7848105727079124 0.17388806045745947
0.2660381435440994 14.981311257074799 1383179.9052580632 4.011382496507925 0.176666431663654
0.27881304554887465 14.723564765097828 1116420.138507423 4.24769940217019 0.17945718003769295
0.2919664599923631 14.498496351446166 905972.006453895 4.494386305851844 0.18226686876285111
0.30550152909699785 14.301264976030783 738676.2291577511 4.751597664644419 0.18509118162712274
0.3194180795681017 14.128183324822977 605137.9658525711 5.0200176587465215 0.1879367790646648
0.3337152204847722 13.97597249423673 497721.8857480994 5.299867707946108 0.19080023258746118
0.3483950536543394 13.842076865383872 411035.9676054056 5.591879482746542 0.19368790071902864
0.363457393860541 13.724031395794936 340694.044942674 5.896216402950702 0.1965947752204861
0.3789100211395193 13.620037518825608 283328.18090774876 6.213744128586698 0.19952857013167458
0.3947401220204222 13.528513377175738 236413.39051676093 6.544722599679558 0.202485508805584
0.410964567834333 13.447916907399826 197885.59049573276 6.889849163949176 0.20546921721104988
0.4275704437429371 13.377117280029275 166102.35903719123 7.2498311085804685 0.20848280950508946
0.4445649526461243 13.314975003734904 139820.37306726575 7.6249310930174445 0.2115218915422674
0.46194623019084086 13.260629321360165 117996.6530244043 8.016090727663908 0.21459251128610823
0.4797094093813555 13.213189512231155 99836.834356393 8.42401830735175 0.21769637054854585
0.49786578207808063 13.172010865436516 84654.57656521353 8.849159776258201 0.22083101109692005
0.5164020078926074 13.136432398146695 71949.60858571237 9.292378245245898 0.22399969727084817
0.5353197284193248 13.10586611058558 61286.954247779235 9.754563148166103 0.22720541751606163
0.5546248196232415 13.079827505350998 52306.498069075315 10.236523905854398 0.23044952250037407
0.5743057213688674 13.057861937120506 44737.67237634713 10.738738622803236 0.2337287978767948
0.5943618137040723 13.039537083680104 38001.13901080031 11.262438080548147 0.2370492577142444
0.6147968928044563 13.02451956868102 32907.4486437168 11.808566247491848 0.24041260130632564
0.6355976417783854 13.01243522902467 28298.981353825315 12.378101917499674 0.2438204612240025
0.656767551678537 13.003043997515642 24181.22387441962 12.97174368501951 0.24727089723081086
0.6782981774694617 12.995986311297115 21032.084866372577 13.590799052603963 0.2507684801301585
0.7001854567828173 12.991070117560705 18176.500046833484 14.23647458472986 0.2543159509018019
0.7224171629046976 12.98799728387523 15732.78511723185 14.909959693324842 0.2579152936390292
0.7450039610983302 12.986654180884331 13540.726974906107 15.612295646253981 0.26156652260459345
0.7679230931484886 12.986758073751469 11838.190454948703 16.344725238767793 0.26527130080891714
0.791166052861755 12.988129803302373 10291.374332727577 17.108875273210227 0.26903443139913047
0.8147387654512456 12.990651313503953 8958.353296718296 17.906200431141375 0.27285834623639715
0.8386191786581918 12.994128041872298 7809.287627179 18.738078138550343 0.2767442366406427
0.862797986923693 12.998401246010229 6816.163159716725 19.605828265254267 0.28069236566935163
0.8872727390087499 13.003343170389723 5957.035002426449 20.511547836916794 0.28470919900054587
0.9120302781832789 13.008831936269194 5212.395437442001 21.45703048939189 0.28879774900492106
0.9370496220884221 13.014732949965513 4566.415612981298 22.44377562291837 0.29295806215624404
0.9623263311957383 13.020923127830963 4005.7338162177903 23.473777475177368 0.29719369038124444
0.9878491062522228 13.02732062456945 3517.480699478647 24.549472555413313 0.3015108534606426
1.0135893172975563 13.03377558694434 3093.036424036803 25.672820932321386 0.30591131724693726
1.0395512785581127 13.040229977697473 2722.1910766797823 26.84574742691272 0.31039607453671764
1.0657009064155203 13.046556179493495 2398.9678899685955 28.071365319262526 0.31497398915628444
1.092029910577951 13.052687283340594 2116.2062014678054 29.351749498279176 0.31964564619131114
1.1185274428653755 13.058522527150071 1869.0980573731656 30.68961461355189 0.3244154521646466
1.1451564355110286 13.063979739308204 1652.5452438989525 32.088402301836524 0.3292917494430106
1.1719179125580306 13.069001003658327 1462.5549271363013 33.55000638310629 0.3342719310502289
1.1987728750015658 13.07345013044804 1295.8005942345314 35.07899043894103 0.3393697099199837
1.2257160760735002 13.077319920680505 1149.403409907383 36.677404274092616 0.34458201237434527
1.2527102952455356 13.080489592433885 1016.0090148217321 38.35025419195138 0.34992299934107046
1.2797507464952604 13.082929789945549 906.9589703192478 40.09980815025028 0.3553894263255963
1.3067937567067427 13.084515731348786 806.9909338075947 41.93153745678358 0.360995854836278
1.333828906418934 13.085240084216233 718.7415086242592 43.848875432688295 0.366743940437736
1.360836657725892 13.085036371717534 640.8205830987944 45.856584448202135 0.3726418527923163
1.3877657575246036 13.08378107703733 571.9949764627323 47.95995859493895 0.3786993379340627
1.4146207469428715 13.081493341137781 510.97712768642253 50.163706986749695 0.38492181162672856
1.4413436384743483 13.078047882458664 457.0179217836997 52.473136070256324 0.3913167012872897
1.467936390019639 13.073451745431676 409.13707669540497 54.89461562990958 0.3978954650111635
1.494344788063536 13.067588939712449 366.64394757381706 57.43433250513059 0.4046671587427089
1.5205572167675359 13.060448880376304 328.94766860600595 60.09891137330106 0.4116415480965969
1.5465389111654462 13.05196815699195 295.3850389939322 62.89545416193684 0.4188291667832326
1.572255082317489 13.042092979160087 265.5562203955924 65.83158323390975 0.4262413798031702
1.5976783527024339 13.03076967119826 238.99886642922266 68.9154887286873 0.43389045196872034
1.6227656495953144 13.017956812791427 215.30942481552734 72.15598049016849 0.4417896223793115
1.6475171324889113 13.003623818130217 194.15976817751897 75.56254506567022 0.44995318555288694
1.6718667441140955 12.987695447813108 175.29398943567438 79.1451720486969 0.4583955933005271
1.6958040553831928 12.970154638425102 158.41804860355538 82.91393571136462 0.46712963697805227
1.7192691125698394 12.950915178231757 143.33286485530766 86.88162172289881 0.47617708890524874
1.7422707126516692 12.93001919990183 129.8198695347227 91.05987276581726 0.4855525645056708
1.7647515834581882 12.907380313733656 117.72027150100011 95.4626306940826 0.49527741234194955
1.7866792438623722 12.882951741036756 106.85430811237181 100.10370284215007 0.5053697204863622
1.808018687746024 12.856706279199102 97.11910999444373 104.99953384361807 0.5158548910826232
1.828730657823248 12.828580577010415 88.36084898103914 110.16665546451324 0.5267554480696411
1.8488113201294996 12.79862536429578 80.49052491001099 115.62260865934182 0.5380944574920855
1.8681993499902563 12.766726262292535 73.40468295362133 121.38774964455595 0.5499018217629135
1.8868720939131607 12.73288881651844 67.03218517278621 127.48341055250228 0.5622070306034485
1.9047969090639891 12.697084099501659 61.27778215180553 133.9321052794001 0.5750396688428686
1.9219416190597578 12.659280953060328 56.09349663872074 140.7593223006363 0.5884353749091858
1.9382583938638431 12.619402629821545 51.410564096940526 147.99281646015064 0.6024327273219279
1.9537583132201106 12.577574263494647 47.1789582942711 155.66118181841486 0.6170678529589926
1.968377472746177 12.533658188163912 43.354039720540484 163.79793658092336 0.6323879469618346
1.9820973775771358 12.4876728303732 39.89348347244254 172.43672105857152 0.6484341694912514
1.9948902442682388 12.43960936064345 36.757182625887005 181.61702176127517 0.6652604023674842
2.0067253915737977 12.389445642643482 33.915969018197266 191.3807050556749 0.6829206587565578
2.0175826053513384 12.337204218315462 31.33777417167278 201.7737740752451 0.7014741315198436
2.0274228735253796 12.28283305344275 29.000776310110314 212.84626658809032 0.7209838537284766
2.0362390585471974 12.226381916501472 26.878404009594682 224.6533872003979 0.741519306438827
2.0439898481635654 12.167803427557972 24.951109800844716 237.2565059172819 0.763158383796911
2.0506548917730645 12.107114056778604 23.19506885310512 250.72227360406123 0.7859830741621895
2.0562273888831375 12.044362066769558 21.60014284785465 265.12375680678787 0.8100815358632605
2.060686581387558 11.979550835579706 20.148400694312404 280.5428622309897 0.8355541242033213
2.0639984787176044 11.912670087329774 18.827134003333327 297.06893062301276 0.8625066757111187
2.0661657279148997 11.843787027271759 17.62399844554692 314.8024030682173 0.8910600372220328
2.0671661924706495 11.772909848191029 16.528255313008497 333.85273499983776 0.9213404101021697
