M[M_sun], R[km], Lambda[1], P_c[MeV/fm^3], rho_c[fm^-3]
0.24162668629717493 15.618656898711224 2160425.4255784233 3.5677272577965504 0.1711233750220791
0.2536371461367278 15.277446719929689 1723361.6070206626 3.784706022193478 0.17388675728573388
0.26602604557571224 14.98158582422272 1383373.5151552048 4.011162715268302 0.17666377573707917
0.2787944193393477 14.723908758458787 1116810.6426977804 4.247356959612788 0.17945320822007702
0.2919425134163576 14.498845368809562 906307.8632921157 4.493912221142882 0.1822615897195875
0.3054702335884038 14.301676190671515 739078.6588416711 4.750975846354319 0.1850844648028316
0.3193765695666022 14.128678240793377 605418.1423714387 5.019243531804453 0.18792874719885527
0.33366712406993715 13.976455714023452 498035.1689655178 5.298920898748742 0.19079069978988425
0.3483389197432448 13.842499127744425 411299.1985924955 5.590757632899021 0.1936770465131436
0.3633917812659988 13.724513013181241 340942.79777379474 5.894894316945536 0.19658235790894235
0.3788361476827583 13.620485433558382 283564.19793753617 6.21220581546202 0.1995145425682271
0.39465767102056676 13.528930528300604 236644.56845945222 6.542969662123198 0.20247013791131735
0.4108716516880443 13.448360450211776 198081.48738054518 6.887847772776758 0.20545217252397435
0.42746770121808675 13.377516478117263 166290.21787764848 7.247562492866793 0.2084640418286866
0.44445256645394293 13.31537501411861 139979.50852767366 7.622401528065947 0.21150175457874854
0.4618204604968018 13.2609757553665 118132.87760533953 8.013256106656817 0.21457058320092573
0.47957373502435907 13.213523347860303 99958.9390613717 8.420856538264797 0.21767259846508408
0.4977178072777239 13.172357819241233 84768.21324402082 8.845682521195197 0.22080583428454711
0.5162429690019116 13.136708231529608 72053.31536154042 9.288529250992447 0.22397260011134706
0.5351468890817698 13.106131818467563 61373.42767065315 9.750316331897455 0.2271763415639156
0.5544409865967934 13.08006172756275 52390.274360541625 10.231851600482077 0.23041840676926664
0.5741065518131311 13.058065895482676 44807.01808293994 10.733661131560988 0.23369619881020962
0.5941550219179259 13.039715202462707 38395.80939152505 11.256879073621224 0.23701452493836753
0.6145727299464542 13.024676765974613 32961.915188141495 11.802492903435258 0.24037566524131077
0.6353587461838469 13.012571680323688 28348.097481356835 12.371479368010014 0.2437812486170614
0.6565113760111235 13.00310666982354 24421.135512584642 12.96460234066789 0.24723008023494308
0.678032132543994 12.996056875535155 21071.14295569785 13.583037545051196 0.25072526613553703
0.6999035818014798 12.991124972273944 18209.816437391473 14.228051322027397 0.2542702542905436
0.7221206402191529 12.988039490588159 15761.913553647973 14.900830412163163 0.25786702368821884
0.7446910517072242 12.986656312690528 13663.019894631274 15.602502280888118 0.26151646541703916
0.7675952928646975 12.986750583533981 11861.925080090235 16.33413522346559 0.2652185122387032
0.7908224962943785 12.988108104501764 10312.127191029143 17.097435490239377 0.2689788036083788
0.8143795807072205 12.990618609122919 8977.706568183354 17.893854242434273 0.27279976445377674
0.8382444073775812 12.994070079029088 7825.3888414877465 18.724880292002634 0.2766835993645052
0.8624076203080334 12.998321453775185 6830.932478144382 19.591607236307492 0.2806285648812011
0.8868642606587288 13.003252939909471 5970.135520252317 20.496235221630858 0.28464209674610436
0.9116066510343929 13.008736123052222 5224.161067425348 21.44055320143605 0.28872719802950236
0.9366097759930655 13.01462538053674 4577.315718793141 22.426202280235046 0.2928850724954815
0.9618690871200204 13.020813613083902 4014.8607435701792 23.454887655163088 0.297116973209454
0.9873765589389991 13.027199193272589 3525.8554777362733 24.52917740122548 0.3014302304476164
1.0131034857705292 13.033651987697281 3100.156944476222 25.6511989764961 0.3058278739552539
1.039047012107026 13.040107427111732 2714.6805406545946 26.82253447676415 0.3103083801910017
1.0651830990632916 13.046446542463245 2404.841570732182 28.046452785879588 0.31488182686250116
1.0914948581952202 13.052567073298752 2121.6770394964105 29.325225641278053 0.31955017659183826
1.1179735909934334 13.058411888503468 1873.8434257556512 30.6611629426925 0.32431508705206785
1.1445880446199468 13.063866102905651 1656.8428205901266 32.05797197948828 0.32918675804167463
1.1713352405290114 13.06889481310283 1466.37925996444 33.51752967444397 0.3341624811935481
1.1981786888306336 13.073372672461229 1299.2104370787467 35.04417050695347 0.3392545698446058
1.2251046395016896 13.07724137723475 1152.4659659498782 36.64034211606025 0.3444624555896316
1.2520856853003817 13.080426199413905 1023.2786319802494 38.31052365103131 0.3497971416972362
1.2791121214531043 13.082881098552145 909.5821731923938 40.05751274440021 0.3552585784698783
1.3061414610465918 13.084489363379 809.2620205563703 41.886502462694665 0.36085970722637556
1.3331644017561997 13.085230106231824 720.840491457381 43.80059626241892 0.3666004297755472
1.3601604180355056 13.085050966474308 642.720591994069 45.805162207445164 0.3724923239013785
1.3870802830530369 13.083831178980182 573.6010898151993 47.90517378675126 0.37854340268503966
1.4139151346686127 13.081549306274814 512.4900041493202 50.104959291236035 0.38475719410976944
1.4406444841878527 13.078167198451737 458.35577232376943 52.4105186925925 0.3911447774289288
1.4672173984425032 13.07357955851883 410.374342116079 54.827851495566094 0.39771574796877857
1.4936246251070457 13.067763732177362 367.7517187826138 57.363122105434144 0.40447912405402975
1.5198277558611908 13.060668096659773 329.9360183611153 60.022930757767675 0.41144463059198
1.5458059694094766 13.052227708103604 296.288615603044 62.81435273036965 0.4186227571920444
1.571517244432591 13.04239843179859 266.36387151625996 65.74498130597327 0.4260248210214775
1.5969319482217572 13.031116198190693 239.7263627673489 68.82297486595861 0.4336630349516274
1.6220251997605832 13.018349858296599 215.97161557214824 72.05710854259442 0.441550581616916
1.6467743698248984 13.004077123686894 194.76255455814302 75.45683091088056 0.44970169408388966
1.6711296678497152 12.98821016043677 175.84209949868824 79.03232626177233 0.45813174391125067
1.695059999521561 12.970725173929521 158.92492475906133 82.7934917591357 0.4668528571266199
1.7185489045328008 12.951586752200273 143.78228574543382 86.7526448354338 0.4758850197129764
1.7415487280104647 12.930741933269331 130.24374406939046 90.92230923867436 0.485246536293092
1.7640316193024506 12.908158087465154 118.09651163741334 95.31515643909965 0.494953820897116
1.7859638461094136 12.883791067993107 107.20716032050989 99.94618948348096 0.5050298134918779
1.807299292480834 12.857589320455343 97.4304659030681 104.83116523153171 0.5154973599819433
1.8280463164893876 12.829592241388388 88.6463362473577 109.98585413876282 0.526376318730466
1.8481310651689875 12.799689214125832 80.75027681429208 115.42904230740481 0.5376946162035965
1.8675342784875892 12.767875433702894 73.64633291312012 121.18037902371913 0.5494796911717443
1.8862228949043536 12.73412448493612 67.24597050282905 127.26107238922908 0.5617607996838264
1.904154831775823 12.698370565096832 61.476195946989094 133.6942383368433 0.574569882539818
1.921320187035881 12.660662912938303 56.271833895983676 140.50395567534508 0.5879378236120989
1.937669328863566 12.620907003041838 51.57263015385887 147.7183174674187 0.6019047148522315
1.953187966304759 12.579148483550812 47.32985139462665 155.3667755032197 0.6165099235212101
1.9678472543319416 12.53537003898083 43.494053637353765 163.4809744226623 0.6317945444337258
1.9815914822160814 12.489477588368697 40.020077815173394 172.09602748293548 0.6478051160545044
1.9944247416450562 12.441552095179974 36.87207655198716 181.25049668443017 0.664592771857853
2.0062808785651143 12.391455951521603 34.02384751815505 190.98597054826342 0.6822110397984559
2.017165645023975 12.339303385805868 31.436547323700005 201.34820714610322 0.7007187921993329
2.02704468383096 12.285050277304293 29.092679059016685 212.38759674528896 0.7201807569992298
2.0359017932056322 12.22871924224476 26.962730430797755 224.15826926371273 0.7406634832981803
2.043691681756727 12.170254868273615 25.025579811703114 236.72184115653485 0.7622463536948884
2.050399800084807 12.109683667794505 23.26588155607197 250.14353188345967 0.785007446439398
2.0560156235913563 12.047043609793702 21.664004646154325 264.4975464206701 0.809039485398704
2.06051301617012 11.982333169920173 20.20823473969473 279.8646113410134 0.8344399524074813
2.063879942492752 11.915589304631435 18.88155671977903 296.33423199135837 0.8613163322837186
2.066096239756914 11.846822365699973 17.67408176898464 314.0043289888747 0.8897824775900957
2.0671471068154936 11.776067408166439 16.575020130307806 332.98602702508026 0.9199715140881848
