M[M_sun], R[km], Lambda[1], P_c[MeV/fm^3], rho_c[fm^-3]
0.24162668629717493 15.618656898711224 2160425.4255784233 3.5677272577965504 0.1711233750220791
0.25364119540244084 15.277360568644063 1723142.1392801893 3.7847847077017516 0.17388773806263538
0.26603640879071433 14.981318795746603 1383039.1312708715 4.011328123490357 0.17666577459782545
0.2788082730581522 14.723662978260872 1116584.3230580366 4.247614682016279 0.17945619741157812
0.29196112827044773 14.498541738705573 906000.0652609742 4.494269015853069 0.1822655627114932
0.30549372901470495 14.30138640097757 738776.5625841803 4.751443822742626 0.1850895198409717
0.31940746012919646 14.12830750466845 605208.2190884554 5.019826132141202 0.18793479190221213
0.3337025382498651 13.976155362756078 497809.18287879985 5.299633454840749 0.1907978740473864
0.34838201790088075 13.842175767766108 411106.4563114477 5.591601918719981 0.19368521521071644
0.36344103030421687 13.724150399197816 340743.82886218 5.895889292832704 0.196591702933034
0.3788918294543112 13.620149125040612 283391.36801494786 6.213363514554394 0.1995250993899891
0.394720287569409 13.528601740478338 236489.96779209038 6.5442888773563395 0.2024817056467395
0.4109415965857201 13.448042980524384 197937.75581597717 6.889353961280563 0.20546499985732025
0.42754626453280625 13.377191147096992 166139.88354131812 7.249269779469938 0.20847816577321437
0.44453826187680695 13.315070848188043 139862.6837877435 7.624305189333 0.21151690894648445
0.4619148731638588 13.260695478052531 118033.57357312703 8.015389333393003 0.21458708543436986
0.4796757584553025 13.213278350694004 99857.4223173374 8.423235954127927 0.21769048834601246
0.4978285217222098 13.172097512598636 84682.85731559772 8.848299349077092 0.22082478123649657
0.5163627978208707 13.136504169830554 71973.75240613554 9.291425821362918 0.2239929921473353
0.5352772851088848 13.105933014740938 61308.061740385376 9.753512271107722 0.2271982226554583
0.5545799204875176 13.079901520756156 52329.21957359024 10.235367726878367 0.23044182279942058
0.5742571422704092 13.057911192211732 44755.20716995657 10.737482165672684 0.23372073103281493
0.5943103659592618 13.039601449747424 38349.92360149271 11.261062452354299 0.23704066276439545
0.6147413075977601 13.024572347060191 32921.03099951195 11.807063323241762 0.24040346101931137
0.6355376877400678 13.012495843463416 28308.616852946645 12.376463065369274 0.24381075745893072
0.6567040058613524 13.003077846610891 24385.7203520088 12.969976430774123 0.24726079633024095
0.6782325942154516 12.996007556630575 21041.19895230588 13.588878304253253 0.25075778591794107
0.7001154690920178 12.991082464702862 18184.185038682434 14.23439004555852 0.25430464217506143
0.722344506281442 12.988004200706929 15739.841996990048 14.907700405118538 0.25790334793063735
0.7449262230095777 12.986655680153376 13643.321264671344 15.609871987755248 0.2615541344700242
0.7678420313959526 12.986758390666783 11844.03334427803 16.342104393416253 0.2652582365521704
0.7910802969212827 12.988123713853316 10296.287526821498 17.106044090172638 0.2690206643147377
0.8146479512036228 12.99065972466571 8962.832342771007 17.903144887810623 0.2728438479017745
0.8385252166896721 12.994114299289194 7812.737305649729 18.734811786418103 0.27672922944265105
0.8627006190532893 12.998382347780044 6819.651827617178 19.602308640611966 0.28067657533329277
0.8871715927464657 13.003315204731845 5960.278033324554 20.507758003413645 0.28469259136251207
0.9119255530211546 13.008808991944607 5215.193926557859 21.452952351064397 0.28878028759757857
0.936939748438633 13.01470194982716 4568.988325741445 22.43942616604293 0.29293999698858864
0.962212894927577 13.020896228099476 4008.0567314483055 23.469102126673338 0.29717470240178817
0.9877321148817044 13.027294874007298 3519.4435500277878 24.544449313607956 0.3014908985055948
1.0134686713022223 13.033751293354056 3094.564778485077 25.66746923914905 0.3058906640323073
1.0394257676388603 13.040202830143986 2723.840490523134 26.840001868976064 0.31037436885343295
1.065574959968923 13.046539439480425 2400.293320512751 28.06519900782252 0.31495117728895017
1.0918986336824343 13.052658341752487 2117.6014590619125 29.34518428481304 0.3196220154538947
1.1183905956678546 13.05849649305696 1870.2995014933147 30.68257213155525 0.324390609353062
1.1450164665967553 13.06394957646003 1653.558986899774 32.080905533061596 0.32926599128390194
1.1717737548643061 13.068968961456926 1463.4942297908383 33.54196740949602 0.33424483888030937
1.1986245486702443 13.073432416186266 1296.6779535510127 35.070371327393296 0.33934120885474184
1.2255653018381323 13.077301732984948 1150.1008510237489 36.66823003244991 0.344552417690948
1.2525557856844889 13.080470549895471 1021.1805589578817 38.34041928885613 0.34989184452408983
1.2795926718901725 13.082919631052087 907.6266378660699 40.08933821881891 0.3553570358555257
1.3066319954446792 13.084512918503743 807.5496285958171 41.92038922817529 0.3609621520522459
1.3336640492292673 13.08523121733557 719.3024676917768 43.83692394582823 0.366708414437934
1.3606688829967544 13.085036768702622 641.2931874201458 45.843854740570386 0.37260483653172327
1.387595419112457 13.083794436040373 572.3773301950047 47.94639630683195 0.37866073528410826
1.414447592082791 13.081510359168853 511.34753379850605 50.14916343990259 0.384881059005731
1.44117580733784 13.078089873572166 457.33943453489275 52.45763434727825 0.3912741393639856
1.4677599509937393 13.073485509474995 409.43771078600423 54.87808710757483 0.39785097320162827
1.4941654824710628 13.06763156533954 366.91615219345994 57.41670300246247 0.4046206071426631
1.5203763990493302 13.060500823554332 329.1854680422576 60.080100654053254 0.41159279671615173
1.5463575269380327 13.052030835731294 295.614489989488 62.87537538743906 0.41877806470580237
1.57207215312237 13.042165638213666 265.7536347247624 65.81014236075266 0.4261877642604223
1.5974950957702498 13.030858556153877 239.18087901405224 68.89258384504667 0.4338341473224676
1.6225817842822279 13.018057885139314 215.47587574808182 72.13150108380869 0.44173043900017506
1.6473339227801658 13.003735815236976 194.31532299923902 75.53637121580249 0.4498909185843277
1.6716823766786655 12.987824806325982 175.4275282371881 79.1173101609747 0.4583305918352319
1.695621759275258 12.970299059531781 158.54164008014493 82.88411402741015 0.4670611068351797
1.7190859038911037 12.951074123572475 143.44217638377174 86.84968677314721 0.4761047719563556
1.742091393864487 12.930197248488739 129.9338124237238 91.02581125591075 0.4854767901837199
1.7645762327083376 12.90757918278266 117.80627425409486 95.42611459681457 0.4951972878708952
1.7865021224101776 12.883161820664622 106.94374207635602 100.06470036499034 0.5052855548327261
1.8078438369819445 12.856930622010884 97.1960554879894 104.95784279612715 0.5157663600558884
1.8285707998094582 12.828846050977424 88.43465529037611 110.12190339520879 0.5266616355757279
1.8486434433094538 12.798886819047592 80.55568835705245 115.57467649691081 0.5379954461846207
1.8680349680823023 12.767011826347355 73.46553023175494 121.33639828482958 0.5497972892126846
1.8867114145805182 12.733196435569363 67.08348572417134 127.42835177759821 0.5620965280815376
1.9046411287470149 12.69740969574192 61.32647077885419 133.8732260259463 0.5749234229147049
1.9217894241308873 12.65963190003771 56.136773053408 140.69608226927392 0.5883121592791234
1.9381191221445748 12.619805250724985 51.4499460347263 147.9248370637273 0.6023019655707217
1.9536146838027229 12.577963468198817 47.21670780105227 155.58827106076933 0.6169296797747845
1.9682455182364835 12.534078816055633 43.3884195865588 163.71948201452597 0.6322411341650858
1.9819733254144503 12.488120965162183 39.92432273838798 172.35234365032676 0.6482783758325624
1.9947731403167466 12.440080603083047 36.786004127113095 181.52624496982799 0.6650950511831716
2.006615980340217 12.389947160953655 33.943337911891575 191.28293959139341 0.6827449046088987
2.017481524350107 12.337727910515344 31.363289131856295 201.66836989584144 0.701287049498667
2.027331168498685 12.283387640197642 29.023426368949103 212.7327715316465 0.7207853009174217
2.0361563546619896 12.226960340820593 26.89934236800979 224.53075117546823 0.7413073271501864
2.0439156966911782 12.168412328788596 24.969070469538195 237.12413165876123 0.7629326735260268
2.050592308335729 12.107748653336444 23.21213843721162 250.57891782268504 0.7857414087187726
2.0561750863894104 12.045024790950647 21.61587993562746 264.96863907835063 0.8098234109509909
2.0606457009455834 11.980243273197035 20.16323338246442 280.37498866986624 0.8352785821215591
2.063976113188521 11.913405191600617 18.84082804237721 296.8869301418415 0.8622118023205722
2.066149450035991 11.844536967480453 17.636369203149474 314.6046976249474 0.8907435496930255
2.0671618560874077 11.773696086000895 16.540146047379103 333.63802110348934 0.9210012866541124
