M[M_sun], R[km], Lambda[1], P_c[MeV/fm^3], rho_c[fm^-3]
0.24162668629717493 15.618656898711224 2160425.4255784233 3.5677272577965504 0.1711233750220791
0.25364444206635256 15.277257987228133 1723205.6993852232 3.784828534198347 0.17388828433877282
0.2660402451162759 14.98126019962345 1382992.1347538086 4.011420255186656 0.17666688795500282
0.27881685623039737 14.723476775427427 1116396.4590972068 4.24775823551436 0.17945786241582534
0.29197114963023735 14.498372680679985 905802.7603208931 4.494467757736782 0.1822677757484939
0.3055075802055987 14.30119685764651 738635.4987603148 4.751704500787931 0.18509233566137254
0.3194240105250056 14.128120725607742 605069.1673228513 5.020150666174055 0.1879381590680616
0.33372378270794983 13.975885427704073 489691.54932124726 5.300030388431469 0.19080187051001302
0.3484047157852755 13.841996303675005 410987.40934650466 5.592072242506699 0.19368976572273455
0.36346666237144404 13.7239788204556 340654.88491474366 5.896443572658777 0.19659690884645858
0.37892255834666755 13.61996076906474 279377.57128050225 6.214008457370572 0.19953098049191095
0.3947550226602918 13.528413252662782 236382.43884121807 6.545023813142117 0.20248815004073117
0.41098051144784037 13.447847145237258 197853.2064488301 6.890193077063013 0.20547214611944487
0.42759015646579157 13.377018340306503 166070.51703744222 7.25022094863858 0.20848603455198278
0.44458505758002437 13.31490789522519 139788.1094068191 7.6253657825830565 0.21152535195071412
0.46196726323433873 13.260549568392063 117974.21808375522 8.016577848837919 0.21459627956220975
0.47973285566475526 13.213134882508221 99803.1525324788 8.424561658691402 0.2177004557910288
0.49789045429700934 13.17196427465049 84635.71586867716 8.849757354376829 0.2208353378178244
0.5164294217868439 13.136393205657502 71930.9098589595 9.293039720914276 0.22400435410079178
0.5353485133258982 13.105831731467164 61269.832199385666 9.755293006429579 0.22721041451206989
0.554656830722957 13.07980186742486 52299.854438287046 10.237326904291512 0.23045487015671454
0.5743401180079843 13.057825263290008 44725.38853516931 10.739611272404943 0.23373440055755076
0.5943976760504494 13.039510787280545 38321.878089998354 11.26339350482925 0.23705522722244238
0.614836601783768 13.02448281322501 32898.50725491687 11.8096100907269 0.24041894961480875
0.6356406131543734 13.012440115040496 28289.371129351755 12.379240176098762 0.24382720093762986
0.6568119587540101 13.003020793526662 24368.39663123115 12.972971131913441 0.24727791281391828
0.678344513465629 12.995981883081699 21026.660017166858 13.592133117983504 0.2507759078487743
0.7002336539059452 12.991053532449449 18170.450285512263 14.237922421744571 0.25432380548826844
0.7224689679733138 12.987992857201299 15727.832317629884 14.911528914732138 0.25792359070413207
0.7450564198984962 12.986655775447254 13631.832520867709 15.61397904297107 0.26157512701197005
0.7679789591018931 12.986763001171274 11835.001844852071 16.346545607718582 0.2652803748915725
0.7912250870638884 12.988138333669509 10287.303460387227 17.110841750590826 0.26904399371272725
0.8147988827407145 12.990678121317668 8955.071979800443 17.90832275887236 0.27286841652972693
0.8386838555814317 12.994123802557418 7806.39787084359 18.740346903225245 0.2767546604404335
0.8628649197029936 12.998413577055361 6813.290860373074 19.608272966582007 0.2807033335024168
0.8873465464746847 13.003359270812837 5954.481263662962 20.51418024135945 0.2847207346049743
0.9121030390014447 13.008850529531953 5210.366787404957 21.459863169158286 0.2888098777193736
0.9371242645081794 13.014740754324372 4564.540648588342 22.44679677804565 0.2929706103146579
0.9624090160915604 13.020959069983345 4004.005470490703 23.47702501929898 0.2972068796228617
0.9879304807810169 13.027344129893361 3515.98802180515 24.552961774615525 0.30152471447212287
1.0136730305731183 13.03380313373269 3091.563304252561 25.67653832024559 0.3059256633628653
1.0396384969756243 13.040254904778983 2721.0301362120654 26.849738429675433 0.3104111518264971
1.0657920704986974 13.046581481848557 2397.8515626348117 28.075648618816604 0.31498983494385635
1.0921231911936837 13.05270861924741 2115.384024292953 29.356309913787534 0.3196620608870318
1.1186219816500722 13.058546929774307 1868.2891088364456 30.694506592026798 0.3244327089357092
1.1452536708916814 13.064003489207458 1651.8291138318577 32.09360987681655 0.32930964215771646
1.1720166747502612 13.069015109035664 1461.6715646820016 33.555590639056604 0.3342907505685423
1.1988756206045867 13.073473216788862 1295.2079369264245 35.0849777324928 0.3393895082766005
1.225821323032895 13.07733531284992 1148.8705117247239 36.68377723052845 0.3446025705452948
1.2528175482990143 13.080495144757576 1019.9725818724037 38.3570589823396 0.3499444821582048
1.2798617539368597 13.082940554458986 906.5721731458287 40.107081271656575 0.3554119269334345
1.306906081609927 13.08452508776551 806.5926064520169 41.939281820047974 0.3610192672196922
1.3339436837943677 13.085237666529425 718.4790507214132 43.85717786506737 0.3667686195604684
1.360952078744246 13.08503132849518 640.5160248051405 45.86542755330638 0.37266756734071443
1.3878835594256558 13.083771677536426 571.7109212395117 47.96938014428277 0.3787261547048375
1.4147396366099698 13.081479467273326 510.71708885618904 50.17381029067152 0.3849501221977246
1.4414648939577839 13.078024805117145 456.7992049601527 52.48390509002456 0.3913462689807702
1.4680596514873414 13.073424681619661 408.9330511469749 54.90609804954821 0.3979263736197626
1.4944691585930254 13.067559629058758 366.46351329707414 57.44657987113231 0.4046994985366588
1.5206813714425151 13.06041197398082 328.7707944899206 60.11197944044485 0.4116754163556793
1.5466652495134139 13.051924040982037 295.2296690570556 62.90940327361175 0.4188646683814488
1.5723812538561865 13.04203958460066 265.41022671924867 65.84647874078722 0.4262786278517869
1.597805786106788 13.030709529194537 238.87357722458145 68.93140145005353 0.43392956852401493
1.6228943098621815 13.017882622578531 215.19069332624434 72.17298722275446 0.44183073922208593
1.6476453859408353 13.003542821596579 194.05791089415044 75.58072914542242 0.4499964450476854
1.6719934791029534 12.98761087252937 175.19398676449194 79.16452902116457 0.458440752895836
1.6959312063262275 12.97005548024594 158.3360300683984 82.93465443336606 0.46717724854086884
1.7194111850675433 12.950840802872655 143.24777953436168 86.90380884836114 0.47622733182814747
1.7423903624425048 12.929886469217214 129.76541356252395 91.08353752998578 0.4856052098952592
1.764875546187494 12.907249211756977 117.65491708769311 95.48800106692649 0.495333080604898
1.7868022726123174 12.882809879607786 106.80413782280534 100.13080091433737 0.5054281969505258
1.8081403046747406 12.85654861114957 97.06682626165286 105.02850013160823 0.515916401055886
1.8288496216068666 12.828410653223278 88.31408562642116 110.19764323771867 0.5268202352604254
1.848927906937826 12.798441617672209 80.44804003255916 115.6559118382573 0.5381632503676813
1.8683049563169534 12.76649908862875 73.3737489876252 121.42342882187535 0.549974451492976
1.8869826033422508 12.732677013496366 66.99652774158378 127.5216329516731 0.562283690848659
1.9049056976762397 12.69685718393053 61.244318128110166 133.9730156556778 0.5751204386281998
1.9220460179773062 12.659037805584823 56.06327699881881 140.8032630952104 0.5885209882868558
1.9383585873417488 12.61914668336716 51.380377094427104 148.04005080909346 0.6025235849421747
1.9538544565434712 12.57729847558844 47.15424675479281 155.71184315781514 0.6171638612684277
1.9684700022349066 12.533363662304719 43.33208114725851 163.85233191370546 0.6324895578955283
1.9821835163503372 12.487360533606008 39.87128161966505 172.4953512257848 0.6485424236845209
1.9949723146147906 12.439280896046162 36.73771921305302 181.68009930027 0.6653752989793829
2.006807247078756 12.389117656443998 33.89647832025479 191.44863957869788 0.6830427854633484
2.0176531866709007 12.336840199454715 31.32184948479022 201.84701743207032 0.701604131253347
2.0274882482595245 12.282451438203884 28.98569290488896 212.925133064674 0.7211218259108283
2.0362971517642405 12.225982345194327 26.864262338319314 224.73860676602754 0.741666610486808
2.044040857981738 12.167383023196892 24.93766434145254 237.34849373629677 0.7633152314784764
2.0506985138567337 12.106672903277083 23.18334010931566 250.82173852495234 0.786150505410851
2.0562699588092612 12.043922451509637 21.590034192494993 265.2315522493325 0.8102609137424379
2.060715152241742 11.979069309339183 20.13824490751164 280.6594421926509 0.8357453424741941
2.06401957964194 11.912170446828215 18.818202049248562 297.19541120149205 0.8627115969111862
2.066178973927677 11.843264235621168 17.61627252241368 314.93979989100256 0.8912799825114368
2.0671691493939863 11.77236789219971 16.520846766669308 334.0019542573529 0.9215760899998647
