M[M_sun], R[km], Lambda[1], P_c[MeV/fm^3], rho_c[fm^-3]
0.24162668629717493 15.618656898711224 2160425.4255784233 3.5677272577965504 0.1711233750220791
0.25364494713969404 15.277263690384572 1723026.2243810892 3.7848516796646883 0.17388857283584502
0.2660428899644791 14.981198465174216 1382878.381717964 4.011468912004102 0.17666747594392637
0.2788205553484572 14.723401122728855 1116356.9381296567 4.2478340502591925 0.17945874175261503
0.2919771113262205 14.498283281980472 905712.9222420275 4.49457272030097 0.18226894453100667
0.30551441997912915 14.301112370047528 738557.324076487 4.751842175662564 0.185093822812775
0.3194330885365611 14.128011253222375 605001.1995981749 5.020322067983002 0.18793993742798445
0.3337346129303268 13.975803454958227 497589.1033314588 5.300240030328321 0.1908039812560555
0.34841716670962886 13.84189116328383 410922.11627040687 5.592320648403864 0.19369216911812373
0.36348314974051227 13.723828600660568 340596.1033041691 5.896736324063276 0.19659965842960245
0.3789376967836215 13.619882728601912 283231.6753359731 6.214349097685431 0.1995340867214248
0.39477334787490903 13.528322258926226 236352.7538679884 6.545411989181621 0.20249155382019748
0.411001253032977 13.447765688915508 197811.92024681516 6.89063628348385 0.20547592065130907
0.4276122544667274 13.376936620567394 166032.187391327 7.250723345264012 0.20849019075051176
0.4446111138306835 13.314827349510262 139760.2788857193 7.625925981288947 0.2115298114926196
0.4619926934250659 13.260463289245752 117931.67580788583 8.017205622062436 0.21460113589563423
0.479762454854563 13.213064243131193 99773.22495393016 8.425261902704674 0.21770572064708543
0.49792400980158713 13.171888630516698 83735.8885330239 8.85052748763921 0.22084091391169666
0.5164655118410004 13.136320651095543 71913.52560168515 9.29389220820241 0.22401035566444663
0.5353857504822629 13.105783416698495 61247.42295053604 9.75623362901386 0.2272168545121824
0.5546969930844027 13.079743539229263 52280.62373553729 10.238355337611807 0.23046167909785364
0.5743834410971633 13.057783714991688 44709.56100257109 10.740735934404 0.2337416212359614
0.594443283431077 13.039477341305396 38311.014650169585 11.264624853942555 0.23706292071398516
0.6148850284190508 13.024472884816932 32887.20547759511 11.810955402698474 0.24042713135619936
0.6356929102097979 13.012417804664283 28278.769330431347 12.380707180652601 0.24383588718044924
0.6568673322979343 13.003004667038176 24164.848229012987 12.974553092232275 0.24728695465038739
0.678403124907935 12.995970154752504 21016.647084725602 13.59385250155099 0.25078548091582764
0.7002955384758405 12.99104749642404 18162.735601450917 14.239788449585866 0.25433392878037897
0.7225341385354034 12.988002563885177 15720.361057100348 14.913551400422907 0.2579342843483609
0.7451263286595133 12.986643718987349 13626.5569280212 15.61614869465448 0.2615862168321888
0.7680512100962016 12.986764408138152 11829.538928823224 16.34889181161309 0.26529207012953837
0.7913011435070463 12.988150331774577 10284.233799643222 17.113376284383836 0.2690563182922975
0.814878332556435 12.990685629791985 8892.608199415268 17.911058181204794 0.2728813959131023
0.8387674051837576 12.994142015126025 7803.162408400506 18.743271080425732 0.2767680955216598
0.8629495429302088 12.998436361156408 6809.8937089642 19.61142392641303 0.2807174698719722
0.88743726491138 13.003379317561524 5951.649173450258 20.51757315270292 0.28473560286856064
0.9121973160098709 13.008876345748105 5207.857361622614 21.46351423976792 0.28882551054642147
0.9372208913794061 13.014779220695502 4562.5563873278825 22.450690797284828 0.29298678385365906
0.9625099374802066 13.020976678490225 4001.816698348361 23.481210863039067 0.29722387957802554
0.9880342019493356 13.027371541524621 3514.228863014584 24.557459149725492 0.30154258040843057
1.0137824783009057 13.033818856017495 3090.1119666634304 25.68132981585962 0.3059441546672298
1.0397495919144863 13.040287504694902 2719.4487933995715 26.854882633730586 0.31043058570310295
1.0659054070975034 13.04661082946233 2396.6608124409936 28.08116961672712 0.3150102595158413
1.0922437050334641 13.052733764893695 2114.318288502578 29.362188135459107 0.319683218875803
1.1187446913536734 13.058572480058114 1867.0683023581985 30.70081223116237 0.32445495248635514
1.1453799142217038 13.064027245618837 1650.7967546644331 32.10032235007625 0.32933270555468475
1.1721474032665136 13.069030271773679 1461.0548286144247 33.56278869877331 0.33431500877193865
1.1990070520292428 13.073486524824485 1294.4392779175685 35.09269535998562 0.3394150283784657
1.2259576633925289 13.077358095397907 1148.1517164269521 36.691992026215786 0.34462907020455913
1.252957265990585 13.080508112486816 1019.4186512215915 38.36580429082273 0.34997202029623564
1.2800032224260602 13.082950143740632 906.0094300297412 40.116456513797864 0.35544093080055356
1.307056542916985 13.084548472002314 806.123920448422 41.94926456663946 0.3610494465750177
1.3340906852236065 13.08523501695284 717.9793591586889 43.86788006391586 0.36680043203021584
1.3611010712756308 13.08502736683867 640.1023539323977 45.87682677558372 0.37270071473062966
1.388042320321056 13.083780354915156 571.3018962803156 47.9815250900542 0.37876072314097675
1.4148883542204869 13.081449860273722 510.40819321130607 50.1868341639595 0.3849866165259381
1.4416210024655134 13.07800426357837 456.48290306779694 52.49778721166184 0.39138438408560466
1.4682160265124127 13.073396565678884 408.6602077380435 54.920899902045775 0.3979662175446309
1.4946293896249503 13.067518188172107 366.2224045938745 57.46236791785482 0.4047411876784551
1.520841985443043 13.060363706273623 328.56900982600985 60.12882557162986 0.4117190761509062
1.5468271809638194 13.051864835689896 295.0390464446257 62.92738529689947 0.4189104340603503
1.5725451037863445 13.041971403311999 265.23152449262585 65.86568092121965 0.4263266452677888
1.5979583665371362 13.03062496681235 238.68909758259247 68.95191510510278 0.4339799950666257
1.6230680886344075 13.017806075387703 215.03708176630633 72.194911378626 0.4418837448223902
1.6478103397839758 13.00344055672536 193.9229342541588 75.60417126165137 0.45005221328665534
1.672157959227453 12.987493194320376 175.0839503570204 79.18948335022796 0.45849897106004484
1.6960948562905251 12.969930807730657 158.22183965103883 82.9613645074376 0.4672386282132929
1.7195750719031035 12.950698609152672 143.14959926718757 86.93241219986612 0.47629210434618957
1.742552326301405 12.929732703214167 129.66825034992962 91.11404606350494 0.48567308015255184
1.765034710248897 12.907078877688273 117.56679296329226 95.52070876277311 0.4954048485928591
1.786945969081434 12.882595199514768 106.72567643574475 100.1657362545315 0.5055035858990379
1.8082957596663847 12.856347332419656 96.9976038415641 105.06584431969901 0.5159957015175732
1.829000390319495 12.828188658015584 88.24891249280107 110.23759392560703 0.5269037615216069
1.8490789598903856 12.798204652391336 80.3947101862121 115.69884807388233 0.5382519418143268
1.8684511328018802 12.766244540260573 73.32051097993055 121.4694287404145 0.5500680904700321
1.8871266957359276 12.73240463889655 66.94800831692866 127.57077994259181 0.5623820546598313
1.9050450028526171 12.69656403947907 61.20129253042713 134.02576092169562 0.5752245741605788
1.9219067378856893 12.659069525988436 56.09092606277105 140.72119394485432 0.7935868851448354
