M[M_sun], R[km], Lambda[1], P_c[MeV/fm^3], rho_c[fm^-3]
0.24162668629717493 15.618656898711224 2160425.4255784233 3.5677272577965504 0.1711233750220791
0.2536436646574716 15.277302564157688 1723243.3392363994 3.78481356287115 0.17388809772840172
0.2660380431064276 14.981298774811618 1382777.9995198045 4.011388782417023 0.17666650762515576
0.2788140476735076 14.723535866535798 1116382.937456306 4.247709196476114 0.17945729363688195
0.29196733103592304 14.498473771191666 905922.2617387164 4.494399865553116 0.18226701975327184
0.3055036181297027 14.301221780017052 738651.7442683305 4.7516154501420935 0.18509137374444176
0.31941954428260355 14.128147210106173 605134.1468889071 5.02003980104054 0.1879370087995114
0.33371566911593636 13.975975530296154 497709.42382811726 5.299894789965498 0.19080050525845924
0.348396661748651 13.842063285026956 411027.717167766 5.591911572095425 0.19368821119230656
0.3634590320491365 13.724017540737822 340662.1654886072 5.896254220539867 0.1965951304112866
0.37891171189297945 13.620028322312292 283321.24776671396 6.213788132041723 0.19952897139020082
0.39474314633664254 13.528481890522304 236429.95210397898 6.5447727433006895 0.2024859484974006
0.41096741546006815 13.447896478130595 197877.35725416814 6.889906415726416 0.20546970479120963
0.427575159745766 13.377074697881314 166098.5424552466 7.2498960057308794 0.2084833463825831
0.4445688022993034 13.314954791198888 139816.82042357075 7.625003456160205 0.2115224675994131
0.4619499282030557 13.26061189678975 117992.27012284458 8.016171818944372 0.21459313859272208
0.479712825579996 13.213195193315247 99829.75430140944 8.42410875907455 0.21769705061905212
0.49786946867203075 13.172006104061474 84652.06234060368 8.849259254904194 0.220831731364821
0.5164065688013164 13.136431304459443 71945.83775813397 9.29248836063481 0.22400047249005103
0.5353241230304255 13.105872056771771 61283.190010889484 9.754684646868673 0.22720624936049244
0.5546307922951688 13.079816028320714 52305.009572969866 10.236657579804369 0.2304504127167345
0.5743114170711461 13.057856281393589 44734.60827924815 10.73888389118285 0.2337297305447904
0.5943653578501035 13.039553307414955 38332.362486925784 11.262597127903266 0.23705025144499736
0.6148033112127967 13.024530172809449 32905.99492902532 11.808740013345824 0.24041365809263973
0.6356037832242152 13.012456898004565 28298.098618503685 12.378291399988111 0.2438215831638767
0.656775012006028 13.003026286855702 24374.081539952822 12.971948014012332 0.24727206509154478
0.6783061840650698 12.995996573152569 21030.639311499144 13.591021129502261 0.25076971659483027
0.7001926099492506 12.991072949791668 18175.27049648871 14.236715600205743 0.25431725842252134
0.7224250535853229 12.988000099433432 15732.195107832304 14.910220914550443 0.25791667481411706
0.7450128937397359 12.986646963036552 13636.149277413044 15.61257587318715 0.261567954938794
0.7679327220907707 12.986745586469203 11838.147577004213 16.345028266099117 0.2652728113241619
0.7911750404441878 12.988132666938876 10290.392021489208 17.109202621682055 0.2690360231838995
0.814749100954477 12.99065211625649 8958.0176288429 17.906553722315685 0.2728600225777577
0.8386297501168236 12.994124383226895 7808.820926315721 18.738455805477802 0.27674597182476424
0.8628094386839492 12.998400621223107 6815.889127074722 19.606235218281796 0.2806941914109343
0.8872827670049602 13.003347832507767 5956.40683624038 20.511986034579472 0.2847111192506473
0.9120410373070524 13.00885095927944 5212.023676165981 21.457502024335707 0.2887997679810001
0.9370620669521876 13.014728179669996 4566.033905207679 22.444278530964578 0.29296015094995553
0.962338128485026 13.020926533944719 4005.2185859321944 23.474318067119885 0.2971958858857485
0.9878625498767811 13.027321041833972 3517.198239385877 24.550053375601806 0.3015131607835232
1.0136041212926048 13.033776213565298 3092.5052130287336 25.673439732565647 0.3059137053162541
1.039566115438411 13.040237772537015 2721.933426617966 26.846411771724153 0.31039858431178696
1.0657157443324263 13.046560824884578 2398.747522096188 28.072078318201072 0.3149766268493938
1.0920455090074985 13.052686748087954 2116.3558533558917 29.35250862446261 0.31964837857946565
1.1185426237360667 13.058528900456032 1868.957585154448 30.690428929595427 0.32441832471725657
1.1451717095125638 13.063987185561372 1652.4184193131841 32.0892691501114 0.32929472784830194
1.1719342962605912 13.068997345659298 1462.4020858158062 33.550935930947794 0.33427506372229515
1.1987890610088008 13.07345919645436 1295.677962513666 35.07998707327033 0.33937300551952254
1.2257336674292725 13.077325464057848 1149.291833294306 36.67846510291214 0.3445854344439043
1.2527282953301393 13.080492968109079 1020.396337061684 38.35139141976035 0.3499266018294641
1.2797691918727296 13.08293556511211 906.8978888883145 40.10101881269412 0.3553931717107413
1.3068120781090817 13.084521025804731 806.9194807748534 41.93282655787309 0.36099975198416956
1.3338483657169593 13.085235950536108 718.7755520642374 43.85025742424782 0.3667480484313643
1.3608552152412114 13.085033900924172 640.7625828283358 45.85805643468811 0.3726461331290633
1.3877845344883055 13.083780634708933 571.9237677181397 47.96152686314119 0.3787038017316142
1.4146412211120492 13.081488878225368 508.96971168989603 50.165388731790124 0.384926524061664
1.441363451736807 13.078041895148363 456.9779211165113 52.474928622601716 0.3913216229644188
1.4679569620598678 13.073449098262802 409.12107990494724 54.89652692612355 0.3979006098768324
1.4943659286808206 13.06758331973218 366.61335444686785 57.43637112461647 0.4046725418213322
1.520577921592761 13.060441986839109 328.9234086179595 60.10108659585397 0.41164718557918506
1.5465598338090876 13.051959374366774 295.3570880112861 62.89777603103764 0.4188350761246909
1.5722759904120522 13.042083964721266 265.5291361288839 65.83406262640129 0.42624757982931394
1.5976996780779151 13.030759465664044 238.98463454962376 68.91813743154934 0.4338969629940552
1.6227866204554338 13.017945048214234 215.28770466140503 72.15881128519712 0.4417964663367578
1.6475388452669995 13.003609112148865 194.14470523268145 75.5655718229669 0.4499603861367667
1.6718876971985066 12.987679172510122 175.27572799534096 79.14839402705131 0.4584031101391661
1.695824947204455 12.970139767461848 158.40314461911845 82.91738434305685 0.467137561923637
1.7192904449098725 12.950900001999576 143.32178979881917 86.8853147587487 0.47618545181444055
1.7422922495876394 12.92999828522304 129.80947646997296 91.06381174309142 0.4855613272802204
1.7647719059099387 12.90735826019942 117.70754293012325 95.46685355429861 0.49528667824018235
1.7867000769769337 12.882927614733392 106.84814127910383 100.10821326214673 0.505379453777036
1.8080387118024233 12.856679194497302 97.10848737223121 105.0043552098644 0.5158651292639532
1.8287506025431797 12.828551836682795 88.35256947038096 110.17181328585286 0.5267662317020417
1.8488310858436043 12.798594131888567 80.48320876300569 115.62815185260467 0.5381059078165575
1.8682187913360124 12.766693420733626 73.39742833525315 121.39368829443171 0.5499139106777882
1.8868901892807022 12.732853685790618 67.0246858461419 127.4897779972325 0.5622198100142153
1.9048147534582913 12.697046655040777 61.27281990568753 133.93891459603105 0.5750531125481722
1.9219589910576014 12.65923909797374 56.08806095600602 140.76663598767212 0.5884496247527862
1.9382742573597447 12.619360769825434 51.40497204773417 148.00067831026655 0.6024478499817773
1.953775053336423 12.577526896232337 47.17575086071068 155.6696140394298 0.6170838328618932
1.9683926441138666 12.533609416149767 43.34949244278781 163.8069902658785 0.6324048593205722
1.9821119133200078 12.48761972522754 39.88987688975799 172.44647955854765 0.6484521874944851
1.9949048223893517 12.439554212416095 36.7555753444903 181.62752044803486 0.6652795258709895
2.0067433896452367 12.389404737018836 33.9102705327359 191.3920120977426 0.6829409855616906
2.0175948851313827 12.337143760071532 31.337050471623915 201.78596466991027 0.7014957686228713
2.0274338253579427 12.282769138327144 28.997787241745645 212.8593930400174 0.7210068176707923
2.0362485899998535 12.226315425470572 26.87703922489671 224.66757098941315 0.741543823455808
2.043983338530192 12.167720407931968 24.95124525528738 237.17341853866503 0.794671671018358
2.046909558360033 12.114411977407121 23.631513443371162 252.35199398333933 1.5553053253031224
