M[M_sun], R[km], Lambda[1], P_c[MeV/fm^3], rho_c[fm^-3]
0.24162668629717493 15.618656898711224 2160425.4255784233 3.5677272577965504 0.1711233750220791
0.25364173505239135 15.277378172303218 1723174.3898639565 3.7847983372708685 0.1738879079486393
0.2660386477608176 14.98124450760662 1383030.976659535 4.011356775294903 0.17666612083797426
0.27881118733889354 14.72358996907228 1116539.3926483693 4.247659325113582 0.17945671520423112
0.2919643140630321 14.498505482447142 905955.262638425 4.494330821424487 0.18226625093087526
0.30549778324671806 14.301324290608555 738699.7624320051 4.751524889039268 0.1850903955116928
0.3194127687676261 14.128243402340427 605210.5510425431 5.019927056013588 0.18793583902634117
0.3337095713837867 13.9760367982625 497813.8265092144 5.299756892939665 0.19079911686422163
0.3483885774431658 13.842130761116495 411071.2214544792 5.59174817892659 0.19368663031845015
0.363449127546152 13.724081165498154 340703.9947789677 5.8960616606076774 0.19659332184765343
0.3789013882053202 13.620088290451871 283357.2074460155 6.21356407532724 0.19952692826274657
0.39472978871382003 13.528581371081366 236449.18562245445 6.544517422581968 0.2024837096796188
0.4109537521957464 13.447987589838727 197913.06541381797 6.889614902370997 0.20546722214114607
0.42755987223000663 13.377160220828623 166119.60119991176 7.24956556449699 0.20848061272693996
0.44455212498442703 13.315006421740156 139835.3315797709 7.624635000490827 0.21151953445536864
0.4619298982466395 13.260656929226 118015.44134139514 8.015758922522098 0.2145899445050834
0.4796939761878641 13.21322670474136 99849.45305696625 8.42364820254169 0.21769358787777124
0.4978479372272812 13.17205429754679 84668.25176345666 8.848752736516674 0.2208280639552767
0.5163836039386108 13.136464449418655 71959.29602830892 9.291927683918777 0.22399652529101605
0.5352995330767433 13.105895474228884 61295.36666870061 9.754066010709717 0.22720201384988503
0.5546033145979896 13.0798762079301 52315.26936057371 10.23597695213511 0.23044588000197094
0.5742835592627269 13.057879764665211 44745.40960484618 10.738144229384849 0.2337249816869287
0.594337260263158 13.039571664736211 38341.45579934758 11.261787309365223 0.23704519168411695
0.6147700994793683 13.024535770439003 32914.53798336471 11.807855254590201 0.24040827728321815
0.6355694362632145 13.01246955668478 28304.918509480656 12.377326619131471 0.24381587062483492
0.6567384030612944 13.003054690558834 24379.724890206013 12.970907641445182 0.24726611874857582
0.6782665393930661 12.99599594791391 21036.48955248622 13.589890392894949 0.25076342095634324
0.7001518527750635 12.991065577374416 18180.03546652228 14.235488437437775 0.25431060100461345
0.7223836688858779 12.98800468906544 15735.198924880955 14.908890874028138 0.25790964238851305
0.7449672621792156 12.986653783200733 13640.273370502337 15.611149064986042 0.2615606620417092
0.7678822540316126 12.986769771921356 11840.767387779255 16.343485369954678 0.2652651203738536
0.791125836822424 12.988130706277353 10293.543018314245 17.107535895039927 0.2690279184566398
0.8146966041694131 12.99065496027793 8960.528938244017 17.904754909338173 0.2728514873388007
0.83857506289116 12.994122565098671 7810.647638449413 18.73653288424165 0.27673713699663033
0.8627522629772637 12.998378932571175 6817.774847890337 19.604163188543833 0.2806848955202609
0.8872233696042843 13.00332623043456 5958.614443739546 20.509754924940506 0.28470134218227033
0.9119813708009035 13.008818527945472 5213.694390366638 21.45510118063058 0.28878948826350787
0.936996840448491 13.014714546238872 4567.576024410002 22.44171795360584 0.292949515769379
0.9622729468035217 13.020915466848615 4006.6564391106344 23.47156562606676 0.29718470740480185
0.9877944604293853 13.027303357396159 3518.4565584621623 24.547096117045605 0.30150141299915595
1.0135336906257713 13.033756487137046 3093.8342023450023 25.670289102813733 0.3059015464292644
1.039492416434252 13.040219857532806 2722.9435981305674 26.84302925802981 0.3103858057841374
1.0656424796241164 13.046552919433159 2399.4958767101725 28.06844808926819 0.3149631970540266
1.0919677775433714 13.052682984362269 2116.8237592102028 29.34864354538169 0.319634466667945
1.1184630174226107 13.05851185057055 1869.6583481702537 30.68628286081327 0.32440369919096895
1.1450912737763441 13.06396629881899 1652.9727930411516 32.08485562229512 0.3292795634014402
1.1718497765907294 13.068988695963487 1462.964383954849 33.54620318050057 0.334259113865321
1.1987018575620438 13.073442961393729 1296.2099621493478 35.07491276591647 0.3393562261607512
1.2256456604476929 13.077315839574876 1149.685947342842 36.673063962399034 0.3445680112006876
1.2526369997840914 13.080477656373878 1020.7729855655951 38.3456013115193 0.34990826003587444
1.2796766965762232 13.082922349471794 907.2996298734221 40.09485482875271 0.35537410240368056
1.3067168304871974 13.084513103395567 807.2396457903072 41.926263222325225 0.3609799100264674
1.3337517170373414 13.085229236875145 719.007740355241 43.843221161804834 0.36672713302049675
1.360756813395474 13.085037765016084 641.0467818344122 45.85056198689437 0.3726243402929229
1.3876857840707557 13.083782513054555 572.1776265787574 47.953542223615564 0.37868107487002656
1.4145395155999123 13.081500192045722 511.16084820250285 50.15682635975837 0.3849025313516381
1.4412615680538157 13.078058449414826 457.1606699250275 52.46580210881826 0.3912965649769786
1.4678544528205033 13.07346442698106 409.28358744389703 54.88679586549658 0.39787441561171766
1.4942608420466077 13.067607709951334 366.78181722716374 57.42599183948818 0.4046451347901102
1.5204710462726347 13.060474986011696 329.0559319341767 60.090011843029046 0.41161848335460816
1.546453562264196 13.051997039678353 295.5000368094088 62.88595467958123 0.4188049898453952
1.572168900307294 13.042127661631152 265.6520977338164 65.82143930295166 0.4262160136550693
1.5975914354427876 13.030812045621502 239.08174567702568 68.90465212949535 0.4338638135062135
1.6226724655127118 13.017974571155138 215.38584530864497 72.14439893362007 0.4417616218779055
1.647430537516515 13.003676891719318 194.23527669885667 75.55016181073923 0.44992372608286835
1.6717807503286775 12.987757807196234 175.34971723021079 79.13199012688128 0.45836484002774225
1.6957178791656349 12.970222601408862 158.47532419255964 82.89982653795401 0.46709721413864724
1.7191802599093216 12.950986360256021 143.3886797186586 86.8665126822549 0.4761428743619797
1.742185780100533 12.930103916628502 129.8771797641198 91.04375756836531 0.48551671412313113
1.7646668862068222 12.907470495692396 117.7645720642708 95.44535412904807 0.4952395037005943
1.78659597919398 12.883050142709264 106.89728207875508 100.0852498673473 0.5053298997672975
1.8079357386852581 12.856811373039307 97.15517681328728 104.97980878982456 0.5158130048895473
1.8286496028534123 12.828695718560667 88.39423768419508 110.14549496814652 0.5267111108418279
1.8487314739173475 12.798748733536382 80.52300956099997 115.59993064136468 0.5380476125325271
1.8681225516226352 12.766863235314867 73.43379974420341 121.36345383741926 0.5498523644030032
1.8867984121734396 12.733032104861323 67.05740615510445 127.45736057927188 0.5621547485150314
1.9047232621791779 12.697238493187186 61.300591751951856 133.90424764351724 0.5749846692199166
1.921870199022967 12.659446273270294 56.11473053920132 140.72940134327882 0.5883770775058884
1.9381888928975337 12.619577497458598 51.42861664157733 147.96065304138773 0.6023708593857076
1.9536936615522111 12.577767511026204 47.20035656263308 155.62668509166846 0.6170024782086371
1.9683155757485105 12.5338570996472 43.36992317948353 163.76084747330344 0.632318588257757
1.9820395081800053 12.487886158699258 39.908711664348594 172.396798760283 0.6483604573324755
1.9948349988962912 12.43983211731758 36.77186905919485 181.57407150845054 0.6651821678864251
2.0066737822420686 12.38968692545045 33.92721503367193 191.33444800223765 0.6828375018968238
2.017537651318644 12.337450969152687 31.35118682745603 201.72390262572412 0.7013856146163567
2.0273804778123226 12.28309591159969 29.011607821449644 212.79256678591346 0.7208899091373253
2.036201151893327 12.226655314622889 26.88877065702658 224.59536214072835 0.7414190087418074
2.043954446574701 12.168090149207774 24.959383465549095 237.1938729783555 0.7630515888824817
2.0506249884837255 12.10741385862732 23.203117431447932 250.65444445225774 0.7858687295442758
2.0562027381212684 12.044676113417514 21.607429030106072 265.0503621449609 0.8099594028818404
2.0606685831549325 11.97987699988986 20.15568247764178 280.46348719116946 0.8354239306636374
2.06399117939938 11.91302735253974 18.834026088209498 296.9828155029804 0.862367153786463
2.066158034048895 11.844141240945728 17.630299976425036 314.70885655550757 0.8909102876543674
2.067163421832985 11.773281961362596 16.53326087611263 333.7511402655823 0.9211799493347433
