M[M_sun], R[km], Lambda[1], P_c[MeV/fm^3], rho_c[fm^-3]
0.24162668629717493 15.618656898711224 2160425.4255784233 3.5677272577965504 0.1711233750220791
0.25364134063261584 15.277380447595407 1723246.5132173204 3.7847880435456225 0.17388777964231997
0.2660362467091731 14.981350411458303 1383004.7289764266 4.011335136020345 0.17666585934011184
0.2788091676614113 14.72362311373213 1116557.8751703233 4.247625608395264 0.17945632414110865
0.2919623815030414 14.498506178025368 905978.6940655815 4.494284142712777 0.1822657311525868
0.3054950348891808 14.301363502869345 738765.7629123406 4.751463663611516 0.1850897341602226
0.31940866412684893 14.128292220530454 605201.3788524313 5.019850833082468 0.18793504818401144
0.3337047245321257 13.976091005813295 497791.38129794743 5.299663666045346 0.19079817822408723
0.34838336081059895 13.842170130763998 411098.26413688355 5.591637715525556 0.19368556155465771
0.36344273615455175 13.724136523393147 340730.8999157429 5.895931479323794 0.1965920991574859
0.3788943307931673 13.620160283091423 283376.64015649416 6.213412601110899 0.19952554700028036
0.3947225606106711 13.528590479155442 236482.24026573563 6.544344812922028 0.20248219612608537
0.4109445725975697 13.448029283736998 197931.5723729985 6.889417825500654 0.2054655437518181
0.4275492807047412 13.377181009652073 166135.27074311321 7.249342171472204 0.20847876465369664
0.4445420941726298 13.3150577110243 139856.06402016903 7.624385908949033 0.21151755152653062
0.46191904864587185 13.260680971688457 118028.11750679101 8.015479788315709 0.21458778517632665
0.4796799612382438 13.213269758985112 99848.5623446002 8.423336849510155 0.21769124693823766
0.4978332142976705 13.172099823649008 84679.88993104386 8.848410312832687 0.22082558466149824
0.5163676848164881 13.13650094808694 71968.92778412672 9.291548648900337 0.22399385686085613
0.5352825276679516 13.105923431974396 61304.30599489773 9.753647794987195 0.22719915052367415
0.5545846405989167 13.079904975735179 52324.81736166386 10.235516830239261 0.23044281576963874
0.5742628200180423 13.057907572196761 44752.000416908006 10.737644200626704 0.23372177134741187
0.5943172176527969 13.039591104974203 38348.89070304325 11.261239855194209 0.23704177118054953
0.6147482575159384 13.024549135455683 32918.9672949243 11.807257141665893 0.240404639758709
0.6355461143918776 13.012476101007547 28310.557745389855 12.376674412425873 0.24381200886053542
0.6567133274507814 13.003050047003956 24384.309557072917 12.970204335944729 0.2472620989427392
0.6782408895910643 12.996008618775868 21040.13293839839 13.589126003159173 0.2507591650390867
0.7001241711411184 12.991079668408565 18047.015811999492 14.234658865915337 0.25430610053861696
0.7223528276434799 12.988019929136913 15739.30693376995 14.907991759933143 0.25790488843336923
0.7449370225667 12.9866546904423 13642.983876963415 15.610184538634703 0.26155573202279675
0.7678516853080163 12.986760466561815 11761.417501877888 16.34244237198709 0.26525992129057807
0.791091567066628 12.988121828908305 10295.630641158206 17.106409192148973 0.2690224396820147
0.8146616572172155 12.990653820614343 8962.329882543381 17.903538921308375 0.2728457175625466
0.8385386452511951 12.99411694090155 7812.55271452858 18.735233003952295 0.27673116471927683
0.862714627755034 12.998383418828409 6819.51330892787 19.60276251768089 0.28067861159345575
0.8871842718740087 13.003328546696507 5959.887400991227 20.508246723813343 0.28469473301108084
0.9119403172307782 13.00881386484085 5215.059326568973 21.45347824810231 0.28878253933640197
0.9369537159443203 13.01470130317083 4568.552628624302 22.439987049372583 0.2929423265786215
0.9622285094283876 13.020893786794817 4007.675830915589 23.46970503309761 0.29717715098391806
0.9877470096023591 13.027294321858067 3519.244487050895 24.545097080003504 0.3014934717739752
1.0134828492480479 13.03376571715528 3094.3200336837795 25.66815935856568 0.3058933273360456
1.0394427157645316 13.040208223461633 2723.6704677543044 26.840742775865806 0.3103771678662476
1.0655927162463947 13.04654206111382 2400.137345653762 28.065994169149974 0.314954118936463
1.0919148397726053 13.052660602830086 2117.4079240408596 29.346030882982067 0.31962506268748925
1.1184083530574684 13.058497661899352 1870.1143365075998 30.683480271039464 0.3243938128739386
1.1450343401166672 13.063968219897399 1653.429204286959 32.081872250560956 0.32926931283001193
1.1717923030231603 13.068976603937248 1463.3862255812885 33.54300404092655 0.33424833243511143
1.1986426661175045 13.073432323514716 1296.5410381693514 35.07148276363715 0.3393448840730892
1.22558458533885 13.077303929722595 1150.004703077778 36.66941304902108 0.3445562339192796
1.2525754184431739 13.080476745636501 1021.0536028024554 38.34168749245266 0.3498958619150657
1.2796132110546352 13.082923162853502 907.5037183167251 40.090688304374176 0.3553612125691992
1.3066523888861432 13.08451251623778 804.0589065127022 41.921826774516724 0.3609664979726234
1.3336856859628015 13.085232717941423 719.2361900954029 43.83846506455214 0.3667129954397894
1.360690419253819 13.085038525596406 641.2349091712556 45.84549620347231 0.3726096096828662
1.3876170788047113 13.083789237068801 572.3381394810599 47.94814512261763 0.3786657129783644
1.4144699453161556 13.08151156924483 511.28695652333494 50.15103877775493 0.38488631390905975
1.4411982032387385 13.07809021522426 457.28373649725387 52.45963323110239 0.3912796275500496
1.4677828238713693 13.073479915590662 409.3989850130225 54.88021838494956 0.3978567102170192
1.4941894087754806 13.067624235578217 366.8854467202612 57.41897623747204 0.4046266097355308
1.5204000219133722 13.060495671602721 329.15982905135587 60.0825261914215 0.41159908293484787
1.546380940292272 13.052025022232705 295.58661175072496 62.87796442306297 0.4187846540073027
1.5720960404952855 13.042157599954205 265.7277138226758 65.8129070193441 0.42619467762956575
1.5975189760663806 13.03084607529279 239.16457035079645 68.89553726568488 0.4338414074031945
1.622605734977104 13.018046001565478 215.4527848546654 72.13465751429796 0.44173807024006784
1.6473573326961226 13.003723458504425 194.29451649061616 75.53974611684481 0.44989894739392794
1.6717068992273851 12.987809359778625 175.41510586488897 79.12090270701256 0.4583389732040368
1.6956451415426417 12.970281180381786 158.52408060047125 82.88795925420732 0.4670699431551605
1.7191110145274613 12.951054367735932 143.43129627161684 86.85380446626682 0.47611409650532793
1.7421138360954669 12.930174123252323 129.91821411513854 91.03020312963704 0.48548656048617034
1.7645994022317664 12.907559451851986 117.80111388631107 95.43082294032466 0.49520761902787835
1.7865255735437024 12.883133161784688 106.9288191717707 100.06972927737662 0.5052964070074825
1.8078661777769998 12.856901688786534 97.18534906408767 104.96321834376256 0.5157777750425597
1.828591373384659 12.828817510084246 88.42704150007702 110.12767674258777 0.526673743199862
1.8486649049794455 12.798855630710246 80.54554072777978 115.58085669639344 0.5380082123441289
1.8680562733702262 12.766975020359721 73.45758955263133 121.34301931019009 0.5498107671939835
1.8867321887314707 12.73315705284923 67.07793488626027 127.43545078467521 0.5621107757320972
1.9046620183181382 12.697367437107278 61.32189846008519 133.8808175912874 0.5749384110218483
1.921810431913761 12.659586035138354 56.1329668988236 140.7042360443233 0.5883280459336435
1.938137958382612 12.619756174043946 51.44484777770392 147.93360185313634 0.6023188250792254
1.953633106682614 12.577911845503701 47.21607880357551 155.59767161625135 0.6169474947684318
1.9682634960158343 12.534024195321075 43.38293593986032 163.72960480571732 0.6322600884237884
1.981990166446282 12.48805961888134 39.92199214448036 172.36322250062295 0.6482984624401655
1.994788997383045 12.440019034699384 36.782458567627195 181.53794882926096 0.665116369925412
2.0066296653538216 12.389881716410658 33.93935844393726 191.2955444241542 0.682767564467925
2.0174946767668294 12.337659850508928 31.359563960896566 201.68195949680353 0.7013111696998712
2.0273437295269847 12.283316201823133 29.02136740688985 212.74740418903914 0.720810899876086
2.036167321616948 12.226885935751618 26.897261515423452 224.5465622492136 0.7413346569675636
2.0439251360190505 12.16833476527547 24.967345559142043 237.1411981403555 0.7629617734448987
2.0505991941531065 12.107667268655373 23.209928475930806 250.59739997254275 0.7857725654457478
2.056181656570545 12.04493917746343 21.614113045778883 264.9886374958197 0.809856689479543
2.0606507108556467 11.980153662975683 20.16080088587587 280.39665534813633 0.835314183860068
2.0639795255190476 11.913312168499045 18.83956913177798 296.91039405186126 0.8622498180590936
2.0661515049114674 11.844440226165455 17.634969763642403 314.63018605003924 0.8907843516484102
2.067162324805378 11.773590820333297 16.538557012408113 333.66570206077836 0.9210450065150112
