M[M_sun], R[km], Lambda[1], P_c[MeV/fm^3], rho_c[fm^-3]
0.24162668629717493 15.618656898711224 2160425.4255784233 3.5677272577965504 0.1711233750220791
0.2536422047246936 15.27736924124632 1723147.2010449388 3.7848058602286128 0.17388800171867838
0.26603835067396037 14.981302614387463 1382967.4362848534 4.011372589967226 0.1766663119489561
0.27881180570276826 14.723606098029258 1116478.578713161 4.247683966446676 0.1794570010065613
0.2919656370017741 14.498500307121551 905981.0170800942 4.494364935933747 0.1822666308038534
0.30550000391529847 14.30129145095317 738656.9119872313 4.751569634963145 0.18509087885306955
0.3194161007035242 14.128196290278087 605156.9741249258 5.019982762864114 0.18793641700641625
0.3337124696879445 13.976011339636836 497711.5651771512 5.299825027197047 0.1907998028631383
0.3483929676614855 13.84208477987614 411049.0393003259 5.591828910604492 0.19368741141964238
0.36345308252461983 13.724081080694408 340677.93402434216 5.896156803300154 0.19659421544795552
0.37890582691299235 13.620070441029522 283335.46794306894 6.213674780244206 0.1995279377582919
0.39473639563864305 13.528536461546611 236435.26873586272 6.544643574683188 0.20248481586312336
0.4109604199493983 13.447953768448961 197898.43513234117 6.889758936805514 0.2054684487988321
0.4275665861991141 13.377119855068557 166112.63371866028 7.2497288326798595 0.2084819634027748
0.44456043690478764 13.314982260905177 139827.24567433735 7.624817051073621 0.2115209836950658
0.46194160968146425 13.260621573622668 118002.77647035649 8.015962930620423 0.2145915226726574
0.4797027235632659 13.213211169930256 99827.77858197234 8.423875758753242 0.21769529878236438
0.4978581028420141 13.172041745136154 84660.41090030347 8.849003001731049 0.22082987598235887
0.5163949312083972 13.136445403533893 71953.18678584648 9.292204707833111 0.22399847555664337
0.5353118938818482 13.105877604117303 61290.49933686855 9.75437167134415 0.22720410656438395
0.5546166777895649 13.079847148527314 52312.10147097659 10.236313241613901 0.23044811955871275
0.574296929727714 13.057875751818617 44740.800810600354 10.738509686493506 0.23372732803477073
0.5943508392438713 13.03955422293632 38338.75760310888 11.26218742950735 0.23704769164200565
0.6147865753922568 13.024526660965167 32909.884793332436 11.808292401129917 0.24041093586354254
0.6355863045239203 13.012467296201061 28301.327330763503 12.377803302862011 0.2438186931045748
0.6567569331855279 13.003030109859559 24376.942711741718 12.971421673382828 0.24726905674434269
0.6782868288007688 12.995983967357834 21034.20135472559 13.590449071631387 0.2507665315298687
0.7001727583298676 12.991072352745434 18178.017937423338 14.236094758057604 0.2543138903235675
0.7224047349542232 12.987996253477604 15734.359470191817 14.909548024036553 0.25791311698832214
0.7449902781573743 12.986649990961357 13638.2967138896 15.611854025528118 0.2615642653323815
0.7679077803694919 12.986752616015771 11757.653659795997 16.344247686566113 0.265268920330966
0.7911492252956098 12.988135659888083 10293.2506689737 17.108359393028707 0.2690319228484994
0.814722592368756 12.990666858811734 8958.971053898158 17.905643667600415 0.2728557044332058
0.8386022270804815 12.994113015081407 7809.482487438734 18.737482961022902 0.27674150210785725
0.8627807409871945 12.998385332269912 6816.800174525477 19.605186935595633 0.2806894884276388
0.8872532886374911 13.003332220623678 5957.124854870398 20.5108572687324 0.28470617282368754
0.9120134975522842 13.008831625256924 5213.032526631208 21.456287384951366 0.2887945672469001
0.9370296070851001 13.014715510074874 4566.9693712765775 22.442983077564428 0.29295477037405065
0.9623050602405802 13.020915859872751 4006.2258601352833 23.47292554388993 0.2971902304351527
0.9878284863012232 13.027310477392195 3517.8711991466307 24.548557228654545 0.30150721730195607
1.0135675736164722 13.033769177655651 3093.3559841487463 25.67184575298324 0.3059075538420624
1.039528680050792 13.04023073524496 2722.5146393401847 26.844700474337053 0.310392119338411
1.0656773730837679 13.046554257141388 2399.286334906613 28.070241693241833 0.31496983237504383
1.0920056967630565 13.052685255326706 2116.5129711718973 29.35055318086631 0.3196413401831675
1.1185026304656533 13.058525509260368 1860.1744987889685 30.68833132335525 0.32441092527532284
1.1451309156941814 13.063976663402652 1652.7384621263152 32.08703622693154 0.32928705574419004
1.1718915914870063 13.06898884343178 1462.75937727619 33.54854150127885 0.3342669942474348
1.1987448451522487 13.073448131735848 1295.9432867655078 35.077419837105886 0.339364516365506
1.2256889504704827 13.077315625962125 1149.5484188386538 36.67573250963043 0.34457661952097385
1.2526825914276418 13.080487972239284 1020.5834964343908 38.348462032490225 0.34991732217277793
1.2797208748710185 13.082927669628692 907.0933652752024 40.0979002671748 0.35538352397274325
1.3067633700826238 13.084523567338284 807.0770568559963 41.92950596458161 0.36098971332758173
1.3337998417540728 13.085231730632962 718.825751461163 43.84669755768991 0.36673746666692675
1.360805249151012 13.08503577184872 640.9023707745165 45.854264753325786 0.37263510743472267
1.3877350648416757 13.083779387750157 572.059349403483 47.957487173274174 0.37869230347021243
1.4145896127559412 13.081494476080543 511.0531084034008 50.161056741810334 0.3849143853483455
1.4413116693508166 13.078047878426466 457.0556149743524 52.470311208775755 0.39130894527604815
1.467904263413241 13.073457676700425 409.19210502989324 54.891603645287894 0.39788735729025554
1.4943128208696028 13.067594928373977 366.69822761749674 57.431119877794124 0.4046586756365386
1.5205235448942844 13.060459229512613 328.98667319244566 60.095483480015865 0.4116326640912875
1.5465058140030616 13.051978911905701 295.42530645254305 62.89179517607412 0.4188198543733097
1.572222192165261 13.042105939538718 265.5875660444856 65.82767601565531 0.4262316093229378
1.5976447610386075 13.030786928015216 239.02965065081509 68.91131470406559 0.4338801914066733
1.6227256632670932 13.017946480579743 215.33558876159813 72.15151951761221 0.4417788371737295
1.647484176416441 13.00364498199413 194.19521894869175 75.55777528870847 0.44994183836653057
1.6718320160381688 12.987719014046622 175.31322192861057 79.14009463518869 0.4583837477529018
1.6957708456954859 12.97018077826111 158.4394820091013 82.90850113063819 0.467117148327371
1.7192371627227399 12.950943789164633 143.3530136884102 86.8758020034462 0.476163910104045
1.7422380205690595 12.930053646788645 129.83921925030305 91.05366548506356 0.4855387555908117
1.7647190862025117 12.907413121849418 117.7367104418146 95.45597606460271 0.4952628105989641
1.7866471563812945 12.882991435103502 106.87229805420498 100.09659506986365 0.5053543822221301
1.807987025315403 12.85674624816071 97.13406404890462 104.99193607661321 0.5158387572084628
1.8286993163812801 12.828626437098112 88.37108597584373 110.15851979283832 0.5267384259627497
1.848780646760443 12.798673402908031 80.50052260325977 115.61387342919917 0.538076413520907
1.8681696722386842 12.766781198797666 73.41777086743541 121.37839125085999 0.5498827715028173
1.8868429892131977 12.732945072637293 67.04176480888361 127.47337646211737 0.5621868922641093
1.9047684849881448 12.697143385262187 61.28863587762235 133.92137488558257 0.5750184837137151
1.9219141465937224 12.659345345088513 56.101528974341036 140.74779712142683 0.5884129194772816
1.938231865793978 12.619470636403298 51.41652984932114 147.98042748930243 0.6024088965201115
1.9537433146733605 12.577680686389677 47.18605142043061 155.6478940615086 0.6170426713295319
1.9683536881083237 12.533735324561878 43.36006634712056 163.78366952834455 0.63236129598905
1.9820750041487325 12.487754026305902 39.89892278471579 172.42134337148767 0.6484057762734127
1.9948701159857485 12.439695874528859 36.76434655275657 181.6004777026566 0.6652302671353141
2.0067043606020887 12.38954102733308 33.920749258192814 191.36288721034921 0.682888627402323
2.017563872776877 12.337300076618762 31.342042865331962 201.75456395300617 0.7014400354477919
2.0274069747300114 12.282933063497353 29.005145286777612 212.82558177048367 0.720947666877607
2.036224317336518 12.22648698690988 26.88298947446303 224.63103627063043 0.7414806723246238
2.0439757402247203 12.167913938036941 24.95319631503393 237.2323800053609 0.7631172469008417
2.0506434418072197 12.107229832358067 23.19879196219987 250.69614607161031 0.785939029048316
2.0562182131348155 12.0444828830354 21.60329252565767 265.09548539397923 0.8100344905898125
2.0606802468070797 11.97967554254133 20.151136307707908 280.51228712316885 0.835503973910201
2.063998894614606 11.912815392948069 18.829868140047108 297.03575916444026 0.8624529320045323
2.0661633403470225 11.843922864688325 17.62649990278765 314.76636894835997 0.8910023536835071
2.0671655062280823 11.773053596917928 16.530458109759696 333.8136006017915 0.9212786004464893
