M[M_sun], R[km], Lambda[1], P_c[MeV/fm^3], rho_c[fm^-3]
0.24162668629717493 15.618656898711224 2160425.4255784233 3.5677272577965504 0.1711233750220791
0.2536311909696474 15.277611252087679 1684052.9128169487 3.784586176874443 0.1738852634716474
0.2660141343436391 14.981813144745518 1383697.6480382117 4.010910792596674 0.17666073140026714
0.27877409441701256 14.72427274621053 1117151.3327234837 4.246964453230984 0.17944865573754257
0.29191282015775694 14.499327509392302 906708.6496557806 4.49336884853237 0.18225553913945927
0.3054328362557567 14.302173828977937 739436.9655097838 4.750263177380823 0.1850767666177687
0.3193318747487807 14.129160741515348 605811.1704887296 5.01835633482092 0.18791954218772455
0.33361332055841003 13.976968557349869 498376.93984798 5.2978358397701895 0.19077977504640867
0.3482747756719016 13.843081287512208 411673.37829658424 5.589472021357688 0.19366460786782166
0.3633182169598478 13.725034838041552 341270.6459933698 5.893379297771672 0.19656812852824918
0.37875103398592025 13.621035176136308 283855.3033578074 6.210443081866088 0.19949846856030162
0.39456210864743574 13.529450062178574 236894.21253026827 6.540961062731785 0.20245252520813953
0.4107648370191105 13.448835474502275 198311.69636135836 6.885554568725641 0.2054326426359693
0.42735012841652614 13.377974849999678 166485.0159660231 7.2449631977383255 0.20844253852623107
0.4443208770778307 13.315800317014576 140161.7252991748 7.619503343029619 0.2114786831623325
0.46167819161412194 13.26140170258339 118300.51892161251 8.010008529504718 0.21454546056610088
0.47941700231057127 13.213940731794738 100105.00732151984 8.41723428427941 0.21764536417893218
0.49754943734415585 13.172667774304513 84892.83622320439 8.841698960124315 0.22077699160034925
0.5160584153624806 13.137030916337922 72169.68250173482 9.284119981156186 0.22394155857681386
0.5349509070218951 13.106427099476814 61474.16263330551 9.74545150469126 0.22714303438175892
0.5542291007915744 13.080320346502578 52476.788435122566 10.226499555679641 0.23038276423872187
0.5738806750080663 13.058282812903562 44884.12997661593 10.72784513072265 0.2336588582832559
0.5939123308860301 13.03992693352096 38127.87490446653 11.250511745858638 0.23697474175928182
0.6143151802973484 13.024837013066346 33024.992505825416 11.795536694669172 0.2403333598858349
0.6350860294706665 13.012699938390062 28402.38078910206 12.363894383854044 0.24373633736304556
0.6562217510305537 13.003227100467884 24468.026188615113 12.956423408514507 0.24718333281268332
0.6777264576484539 12.996147254374648 21114.6420852351 13.574148655134945 0.25067577517795947
0.6995804675517147 12.991183652264661 18248.168645624173 14.21840489266066 0.2542179219404349
0.7217809952418285 12.988068133544886 15797.874619886037 14.89037580773984 0.2578117462537398
0.7443341149460632 12.986672284978713 13694.352535796595 15.591287510505207 0.26145914294989286
0.7672194226674282 12.986728720486743 11889.514969903104 16.322008602777156 0.2651580640760329
0.790434079436598 12.988086602662912 10336.911774808095 17.084336261619978 0.2689151064953736
0.813964293686746 12.99055516877147 8999.537849298504 17.879717624399728 0.27273268721201943
0.8378145790982924 12.993998513705748 7845.478858613231 18.709677383169907 0.27661335867716014
0.8619630589939238 12.998252153840632 6848.086468296501 19.57532493795949 0.2805555164772218
0.886396910298459 13.003148891149404 5985.2632482735635 20.478703741832724 0.28456527108333
0.911121795634833 13.00861698575477 5237.824286224574 21.421688959350025 0.28864642680772906
0.9361077647367007 13.014503003219213 4589.19933959379 22.40608379051303 0.29280151174290725
0.961345916758528 13.020684991379877 4025.668894821036 23.433262806176256 0.29702914827234983
0.9868345891988695 13.027063215910188 3535.43413166205 24.50594458998367 0.30133793751768606
1.0125401565085006 13.03352019642099 3108.8972346034807 25.626349079729323 0.30573162766485873
1.038463621142203 13.039960755135095 2736.6316789218763 26.79596329726307 0.31020799905950686
1.064586447821589 13.046299130155157 2411.868322820184 28.017937209357882 0.3147763353454244
1.0908778387809883 13.052425422737784 2127.8162803539894 29.294866618303388 0.3194409027496646
1.1173414755452435 13.058274498844941 1879.3138129996744 30.628598596504517 0.3242002142107727
1.143939247287721 13.063742471582431 1661.7640823218492 32.02304981590969 0.3290659836149638
1.170666819698824 13.068771213915124 1470.8316159183544 33.48036106589824 0.33403721915050505
1.1974879251654775 13.073246701050586 1303.2592966428988 35.00432171735864 0.339122800700447
1.2244034254391896 13.077150962737623 1156.0653106330803 36.597928628938554 0.3443256362456437
1.251366530721995 13.080347046217517 1026.5561743365135 38.26505833029735 0.3496531175281403
1.2783786678715587 13.082823501258586 912.3657140396004 40.00911394088059 0.3551088487407842
1.3053955474556487 13.08445951611095 811.9170164862604 41.83485965000987 0.3607032973513079
1.332410487541238 13.085247111000957 723.1762197046381 43.745354384167555 0.3664362223443885
1.3593854817200255 13.085070033009906 644.8387194445064 45.74632601639251 0.3723212362500898
1.386292513745048 13.083878345842543 575.5399192363635 47.84232798715418 0.37836413101298694
1.413117153479208 13.081636171679612 514.1981231886376 50.03774680198839 0.3845688573079281
1.4398345715619805 13.078291884759624 459.90738475358665 52.33888158166526 0.3909480887624286
1.466399366685064 13.073738382656218 411.7681901093232 54.75147317134454 0.3975101512563162
1.4927966626416076 13.067968353886474 369.0185514786315 57.28166036191528 0.4042640201696656
1.5189935732736517 13.060917569681232 331.0912914566141 59.93601548422178 0.41121937394382563
1.5449645573889255 13.052522918014308 297.31687357558894 62.721583392768885 0.41838665185236107
1.570670937284943 13.042743910715256 267.29823058501216 65.64592417480118 0.42577711647083133
1.5960878362564714 13.031522399995987 240.56389583124852 68.7171599619333 0.4334029213953705
1.6211806793902521 13.018827253874353 216.72815052643315 71.94402626833924 0.44127718482728445
1.6459213110793542 13.004598828636619 195.46113231792737 75.33592833262135 0.44941406971539843
1.6702686530440485 12.988786993771763 176.4636054649348 78.90300300064564 0.4578288712306951
1.694210864476917 12.971383020231238 159.49726867949042 82.65575457282849 0.4665363374736417
1.7177043588833234 12.952313997812622 144.31153024934892 86.60515651500819 0.4755510312328467
1.7407093721647844 12.931537939598986 130.70911425605627 90.76489886263083 0.4848961654228798
1.7631902506961055 12.909007289413708 118.52835721808938 95.14653119032727 0.49458381944912094
1.7851403970212936 12.884749654215897 107.59247164114531 99.76609317516655 0.5046411734717925
1.8064924898584656 12.85863427369671 97.78510995954301 104.63805152493434 0.5150862641274754
1.8272477859509344 12.830722058160646 88.9692402915344 109.77912350751824 0.5259427718440916
1.8473380092694855 12.800880800257753 81.0536102578501 115.2077565128495 0.5372375161119024
1.8667681910104457 12.769191221471434 73.91265020448311 120.94332390624517 0.5489971338235765
1.8854648297577492 12.735503957874576 67.48882530693932 127.00692020185434 0.5612507182716813
1.9034404832515306 12.699912983351851 61.70106786763379 133.42153574258006 0.5740300308107524
1.9206236838136153 12.662281321732195 56.4833475393516 140.2120785634072 0.5873691360027878
1.9370129690485602 12.62268993775839 51.76633572778063 147.40459031339992 0.6013012450625771
1.9525586897444271 12.581036489935965 47.50425814828506 155.03001559670017 0.6158712756509294
1.9672254484851739 12.537302556861864 43.64918747924837 163.11868983166198 0.6311161904370818
1.9810079914915826 12.491542758182755 40.16713268025384 171.70671165891085 0.6470862869523546
1.9938759821342305 12.44372991756445 37.005815969885354 180.83168726980628 0.6638299047019942
2.0057685954578264 12.393759726288147 34.14372503333846 190.5349550196778 0.6814002437735998
2.0166901271278577 12.341724724620612 31.548451787370595 200.8619937296571 0.6998558113461396
2.0266170833317436 12.287610846614433 29.194808558811616 211.86288155481802 0.7192609283684313
2.0355052056155185 12.23137466125277 27.055375798258346 223.59266550955627 0.7396858237440053
2.043350091858798 12.173061958305286 25.113437327345757 236.110086355267 0.7612012449175591
2.050111466189113 12.11263760198891 23.34602247878472 249.48249073825565 0.7838930804895984
2.055768612017492 12.050112383870275 21.737864605157 263.7823368463806 0.8078493351142858
2.060320632904323 11.985544193321498 20.275542397288653 279.08981039753917 0.833166833369938
2.063746912804488 11.918944214916927 18.944357575392434 295.4939095816709 0.8599526576583785
2.0660131038436775 11.850301145288563 17.731673934905647 313.0930348067554 0.8883236748422935
2.067130725448542 11.779702632310462 16.62664159746267 331.9955860704726 0.9184057079039809
