M[M_sun], R[km], Lambda[1], P_c[MeV/fm^3], rho_c[fm^-3]
0.24162668629717493 15.618656898711224 2160425.4255784233 3.5677272577965504 0.1711233750220791
0.25364502263514754 15.27727177220592 1723189.2052357874 3.7848410835218775 0.17388844076003665
0.2660419716544118 14.981223326259995 1382966.8076994966 4.011446636548878 0.17666720675819605
0.27881889261334797 14.723431388783563 1116380.050310498 4.247799341622669 0.17945833918473617
0.29197425474261574 14.498322652155027 905807.9873229691 4.494524667437849 0.18226840945122336
0.3055110840230082 14.301154474990446 738610.4267783738 4.751779146650158 0.18509314197914833
0.3194289114946262 14.128054901588698 605016.7289262242 5.020243598257076 0.18793912327429144
0.3337283423466551 13.975868828824277 497634.78945171717 5.3001440536388245 0.1908030149300464
0.3484114724498754 13.84193921021884 410953.5103848733 5.592206924836788 0.19369106881132797
0.3634755904273472 13.723897210235116 340609.61170413333 5.896602298238699 0.19659839963069511
0.37892994852460626 13.619934945785968 283248.07897978276 6.21419314729437 0.19953266464163483
0.39476450890453424 13.528381749667473 236359.66233848454 6.545234275857916 0.20248999551442753
0.41099185170034386 13.447790191697566 197833.26258589 6.890433375931448 0.20547419260544594
0.42760134329320487 13.37698406641482 166041.1649118465 7.250493338938021 0.2084882879671224
0.44459839312390587 13.31486140277139 139775.39092888578 7.6256695116426 0.21152776982932522
0.4619802373745679 13.260497295587378 117946.45781712153 8.016918214928472 0.21459891256909433
0.4797489512797693 13.21309274961925 99783.82896730612 8.424941316345238 0.21770331028583398
0.49790868263673976 13.171924926878278 84625.54878900723 8.850174903891745 0.22083836105471757
0.5164488323721144 13.136354366106723 71922.24929345488 9.293501920211828 0.2240076080126613
0.5353696754616721 13.105805379087714 61259.81737982718 9.755802989830245 0.22721390612838077
0.5546799142244643 13.079771607130098 52291.24368664175 10.237886147355175 0.23045858303495018
0.5743633822436596 13.057816661065154 44717.25424217805 10.740221035738097 0.23373831542703064
0.594422464953127 13.0395023304568 38318.30172991783 11.264061110111271 0.23705939843232562
0.614862679943062 13.024471889097207 32891.79721954778 11.81033948247839 0.24042338553362105
0.6356693107649809 13.012430418688137 28283.28518793938 12.380035544955659 0.2438319103756503
0.6568419493451944 13.00301177620333 24363.214722181547 12.973828825374758 0.24728281503802943
0.6783762492956895 12.995963599134242 21021.01972791516 13.593065316844145 0.25078109808227933
0.7002674045722839 12.99105773954093 18165.57370639592 14.238934125115424 0.2543292940284315
0.7225038232707416 12.988003830692948 15724.90531734462 14.912625442960323 0.2579293884622139
0.7450953498935551 12.98664237495435 13629.017436750537 15.615155358367165 0.26158113955599405
0.7680183073837537 12.986749299983982 11750.440889673373 16.347817641941184 0.265286715663135
0.7912663519184535 12.988135350366958 10286.38692983837 17.1122158887783 0.26905067568141067
0.8148431330546044 12.990674849181643 8952.983529984409 17.90980580953405 0.27287545349907344
0.8387283555388395 12.994139792823402 7804.708561804856 18.741932288038136 0.2767619444633486
0.8629110510133267 12.998421477859482 6769.104405981309 19.609981302003536 0.2807109977260624
0.8873955865348276 13.003374357705246 5953.042563892304 20.516019750961465 0.28472879562127085
0.9121545225730454 13.008859802066024 5209.069799308099 21.461842639702052 0.28881835323901306
0.9371776501541844 13.014761083039552 4563.326893720518 22.44890796312239 0.29297937897554016
0.962464738863743 13.020960798056176 4002.773985278448 23.479294416331797 0.2972160963185155
0.9879869402810422 13.027357014928558 3514.9919317623544 24.55540006728836 0.3015344006514002
1.0137319698640284 13.033816670759098 3090.485727165636 25.679136069386747 0.30593568857709924
1.0396986094512477 13.040273819519173 2720.1624349260305 26.85252739774685 0.31042168804566267
1.0658525565310952 13.046594373460213 2397.079429071556 28.078641863161103 0.31500090825624905
1.092188574520475 13.052724088025252 2114.6572867078457 29.359496824718963 0.31967353180961167
1.1186885143247005 13.058558830732794 1867.5095139937441 30.69792522359103 0.3244447683800738
1.145321807339264 13.06401516748951 1651.279746958461 32.09724907007476 0.32932214606730553
1.1720890983123156 13.06902685087478 1461.3403871216221 33.55949308772008 0.3343039022228975
1.1989457618612551 13.073483705393407 1294.7734030910158 35.08916185853497 0.3394033440471028
1.2258947371164597 13.077346237313424 1148.4553353348322 36.68823089047128 0.34461693736285864
1.2528936308847036 13.080503453509596 1019.6459578255689 38.361800253043256 0.34995941196512137
1.2799375063724865 13.082947061601569 906.2617785030029 40.11216405121986 0.3554276513553563
1.3069898015118857 13.084552727886296 806.3555687540314 41.94469394904091 0.3610356289055718
1.3340227328733474 13.085239799514335 718.1681457913455 43.862980032372995 0.36678586660236073
1.361032528945973 13.085028882211395 640.276911408827 45.87160759977379 0.3726855380763458
1.3879729763688637 13.083781008913604 571.4805864849044 47.9759644709891 0.3787448958241106
1.4148169370523305 13.081459058852367 510.56794697091505 50.1808711092676 0.38496990738954917
1.4415498549968149 13.078012699771703 456.6295804022029 52.49143118999204 0.39136693283149493
1.4681450458453704 13.07340904218065 408.78914121021546 54.91412276126229 0.39794797470048393
1.494555031364586 13.067537499257783 366.3310066407993 57.45513922504995 0.40472209994679076
1.5207685254443544 13.060384034482716 328.6746674097596 60.12111240887824 0.4116990860948756
1.5467527701201393 13.05189104899159 295.12660852006167 62.919152036629384 0.4188894797583897
1.5724703455033906 13.04200313516644 265.3178509518611 65.85688897892952 0.4263046599337849
1.5978841663989563 13.030661138903486 238.77649273712115 68.94252266687585 0.43395690663185715
1.6229922543570654 13.017849427471548 215.10365252707933 72.1848731005855 0.4418594754750696
1.6477347007616925 13.003488232389794 193.97726434589387 75.59343793813801 0.45002667896437876
1.6720819751601468 12.98754740866768 175.13593687291416 79.17805761353578 0.4584723149470609
1.6960198685231362 12.969984345842608 158.2712656290899 82.94913484345577 0.4672105244810812
1.7194994080058863 12.950765692185223 143.1967448648728 86.91931563188363 0.4762624470633433
1.7424807054003033 12.929817420994235 129.70749578492556 91.10007714098325 0.48564200444171657
1.7649628619206954 12.907154374410304 117.60580174461613 95.50573286964622 0.49537198813938427
1.7868737146830918 12.882679264958641 106.7604747822437 100.14974034936262 0.5054690674296461
1.80822491512964 12.856439231811095 97.03159754477875 105.04874542791808 0.5159593919850357
1.8289374898346125 12.82830259715155 88.27905883982476 110.21930154042877 0.5268655170101156
1.8490104052687364 12.798310303974326 80.41544011386137 115.67918862317048 0.538211332173111
1.8683841696957744 12.766360285116818 73.34219456272821 121.44836644576988 0.5500252153566056
1.8870588283104057 12.732530483498122 66.96855319154592 127.5482766203212 0.562337016041979
1.9049797069679302 12.69669949533754 61.217929627410385 134.00160995694569 0.5751768926573544
1.9221194533658104 12.658867155384392 56.04114211042272 140.83397573586794 0.5885808281902837
1.938429302803467 12.618964434846552 51.36140268560693 148.07306575032436 0.6025870908242281
1.9539222303528008 12.577103757632033 47.137488527283345 155.74725368114423 0.6172309677547797
1.9685347364987953 12.533162534800457 43.31688824347731 163.89035264994362 0.6325605809467956
1.9822452022083201 12.487146685337347 39.85612817651534 172.5363323341923 0.6486180908204137
1.9950286878056447 12.43905012094683 36.7247639239131 181.72418936769031 0.6654556096485323
2.006860673271503 12.388875565191967 33.88283506022488 191.49612498294042 0.683128150544057
2.017702446684002 12.336585902918813 31.31004332613299 201.89821408526208 0.701695000262629
2.0275345203368906 12.282189108591709 28.97421470533284 212.98026069323325 0.7212182683988115
2.0363381317945697 12.225700700765577 26.85524672056115 224.79817575062606 0.7417695768948229
2.044075951337519 12.167090264394863 24.9287472777116 237.41279434054613 0.7634248699154756
2.050729410206494 12.10636432607314 23.17517118218919 250.89123541250729 0.7862674422019026
2.056295154028619 12.043599602920663 21.582555613973742 265.3068364711209 0.8103860833357471
2.0607363614321663 11.97873172955722 20.132727266235516 280.74093535879905 0.8358790102340453
2.064033009614452 11.91181823071831 18.81140539027276 297.2838261408448 0.862854844955225
2.0661867364404247 11.842899927665528 17.60983950165492 315.035846758443 0.891433734655244
2.06717112720036 11.771991979182976 16.515357401547742 334.1062666785694 0.9217408431367587
